May 10, 2022   10:06:08
Cyclic Voltammetry
File: c:\users\nstumme\onedrive - university of iowa\documents\year 3\220510\nq\150 mv.csv
Data Source:  Experiment
Instrument Model:  CHI660D
Header: 
Note: 

Init E (V) = -1.2
High E (V) = -0.5
Low E (V) = -1.2
Init P/N = P
Scan Rate (V/s) = 0.15
Segment = 6
Sample Interval (V) = 0.001
Quiet Time (sec) = 2
Sensitivity (A/V) = 1e-4

Segment 1:

Segment 2:

Segment 3:

Segment 4:

Segment 5:

Segment 6:

Potential/V, Current/A

-1.200, -1.770e-4
-1.199, -1.766e-4
-1.198, -1.764e-4
-1.197, -1.761e-4
-1.196, -1.759e-4
-1.195, -1.756e-4
-1.194, -1.754e-4
-1.193, -1.751e-4
-1.192, -1.749e-4
-1.191, -1.747e-4
-1.190, -1.745e-4
-1.189, -1.743e-4
-1.188, -1.741e-4
-1.187, -1.739e-4
-1.186, -1.737e-4
-1.185, -1.735e-4
-1.184, -1.733e-4
-1.183, -1.731e-4
-1.182, -1.730e-4
-1.181, -1.728e-4
-1.180, -1.726e-4
-1.179, -1.724e-4
-1.178, -1.722e-4
-1.177, -1.720e-4
-1.176, -1.719e-4
-1.175, -1.717e-4
-1.174, -1.715e-4
-1.173, -1.713e-4
-1.172, -1.711e-4
-1.171, -1.710e-4
-1.170, -1.708e-4
-1.169, -1.706e-4
-1.168, -1.704e-4
-1.167, -1.702e-4
-1.166, -1.701e-4
-1.165, -1.699e-4
-1.164, -1.697e-4
-1.163, -1.696e-4
-1.162, -1.694e-4
-1.161, -1.692e-4
-1.160, -1.690e-4
-1.159, -1.689e-4
-1.158, -1.687e-4
-1.157, -1.685e-4
-1.156, -1.684e-4
-1.155, -1.682e-4
-1.154, -1.681e-4
-1.153, -1.679e-4
-1.152, -1.677e-4
-1.151, -1.676e-4
-1.150, -1.675e-4
-1.149, -1.673e-4
-1.148, -1.672e-4
-1.147, -1.670e-4
-1.146, -1.669e-4
-1.145, -1.667e-4
-1.144, -1.666e-4
-1.143, -1.664e-4
-1.142, -1.662e-4
-1.141, -1.661e-4
-1.140, -1.659e-4
-1.139, -1.658e-4
-1.138, -1.656e-4
-1.137, -1.654e-4
-1.136, -1.653e-4
-1.135, -1.651e-4
-1.134, -1.650e-4
-1.133, -1.648e-4
-1.132, -1.647e-4
-1.131, -1.645e-4
-1.130, -1.643e-4
-1.129, -1.642e-4
-1.128, -1.640e-4
-1.127, -1.639e-4
-1.126, -1.637e-4
-1.125, -1.636e-4
-1.124, -1.635e-4
-1.123, -1.633e-4
-1.122, -1.632e-4
-1.121, -1.630e-4
-1.120, -1.629e-4
-1.119, -1.628e-4
-1.118, -1.627e-4
-1.117, -1.625e-4
-1.116, -1.624e-4
-1.115, -1.622e-4
-1.114, -1.621e-4
-1.113, -1.620e-4
-1.112, -1.618e-4
-1.111, -1.617e-4
-1.110, -1.615e-4
-1.109, -1.614e-4
-1.108, -1.612e-4
-1.107, -1.610e-4
-1.106, -1.609e-4
-1.105, -1.607e-4
-1.104, -1.606e-4
-1.103, -1.604e-4
-1.102, -1.603e-4
-1.101, -1.601e-4
-1.100, -1.600e-4
-1.099, -1.598e-4
-1.098, -1.597e-4
-1.097, -1.596e-4
-1.096, -1.594e-4
-1.095, -1.593e-4
-1.094, -1.591e-4
-1.093, -1.590e-4
-1.092, -1.588e-4
-1.091, -1.587e-4
-1.090, -1.586e-4
-1.089, -1.584e-4
-1.088, -1.583e-4
-1.087, -1.581e-4
-1.086, -1.580e-4
-1.085, -1.578e-4
-1.084, -1.577e-4
-1.083, -1.575e-4
-1.082, -1.574e-4
-1.081, -1.572e-4
-1.080, -1.570e-4
-1.079, -1.569e-4
-1.078, -1.567e-4
-1.077, -1.566e-4
-1.076, -1.564e-4
-1.075, -1.562e-4
-1.074, -1.561e-4
-1.073, -1.559e-4
-1.072, -1.558e-4
-1.071, -1.556e-4
-1.070, -1.554e-4
-1.069, -1.553e-4
-1.068, -1.551e-4
-1.067, -1.549e-4
-1.066, -1.547e-4
-1.065, -1.545e-4
-1.064, -1.544e-4
-1.063, -1.542e-4
-1.062, -1.540e-4
-1.061, -1.538e-4
-1.060, -1.536e-4
-1.059, -1.534e-4
-1.058, -1.533e-4
-1.057, -1.531e-4
-1.056, -1.529e-4
-1.055, -1.527e-4
-1.054, -1.525e-4
-1.053, -1.523e-4
-1.052, -1.521e-4
-1.051, -1.519e-4
-1.050, -1.517e-4
-1.049, -1.515e-4
-1.048, -1.513e-4
-1.047, -1.511e-4
-1.046, -1.508e-4
-1.045, -1.506e-4
-1.044, -1.503e-4
-1.043, -1.501e-4
-1.042, -1.498e-4
-1.041, -1.496e-4
-1.040, -1.493e-4
-1.039, -1.491e-4
-1.038, -1.488e-4
-1.037, -1.485e-4
-1.036, -1.482e-4
-1.035, -1.479e-4
-1.034, -1.476e-4
-1.033, -1.473e-4
-1.032, -1.470e-4
-1.031, -1.467e-4
-1.030, -1.464e-4
-1.029, -1.461e-4
-1.028, -1.458e-4
-1.027, -1.455e-4
-1.026, -1.451e-4
-1.025, -1.448e-4
-1.024, -1.444e-4
-1.023, -1.440e-4
-1.022, -1.437e-4
-1.021, -1.433e-4
-1.020, -1.429e-4
-1.019, -1.425e-4
-1.018, -1.420e-4
-1.017, -1.416e-4
-1.016, -1.412e-4
-1.015, -1.407e-4
-1.014, -1.403e-4
-1.013, -1.398e-4
-1.012, -1.393e-4
-1.011, -1.387e-4
-1.010, -1.383e-4
-1.009, -1.377e-4
-1.008, -1.372e-4
-1.007, -1.367e-4
-1.006, -1.361e-4
-1.005, -1.355e-4
-1.004, -1.349e-4
-1.003, -1.343e-4
-1.002, -1.337e-4
-1.001, -1.330e-4
-1.000, -1.324e-4
-0.999, -1.317e-4
-0.998, -1.311e-4
-0.997, -1.304e-4
-0.996, -1.296e-4
-0.995, -1.289e-4
-0.994, -1.281e-4
-0.993, -1.273e-4
-0.992, -1.265e-4
-0.991, -1.257e-4
-0.990, -1.248e-4
-0.989, -1.240e-4
-0.988, -1.231e-4
-0.987, -1.222e-4
-0.986, -1.212e-4
-0.985, -1.203e-4
-0.984, -1.193e-4
-0.983, -1.183e-4
-0.982, -1.173e-4
-0.981, -1.162e-4
-0.980, -1.152e-4
-0.979, -1.142e-4
-0.978, -1.130e-4
-0.977, -1.120e-4
-0.976, -1.108e-4
-0.975, -1.096e-4
-0.974, -1.084e-4
-0.973, -1.070e-4
-0.972, -1.058e-4
-0.971, -1.045e-4
-0.970, -1.032e-4
-0.969, -1.019e-4
-0.968, -1.005e-4
-0.967, -9.920e-5
-0.966, -9.775e-5
-0.965, -9.631e-5
-0.964, -9.488e-5
-0.963, -9.338e-5
-0.962, -9.189e-5
-0.961, -9.028e-5
-0.960, -8.873e-5
-0.959, -8.714e-5
-0.958, -8.547e-5
-0.957, -8.391e-5
-0.956, -8.220e-5
-0.955, -8.049e-5
-0.954, -7.881e-5
-0.953, -7.700e-5
-0.952, -7.521e-5
-0.951, -7.338e-5
-0.950, -7.159e-5
-0.949, -6.970e-5
-0.948, -6.778e-5
-0.947, -6.610e-5
-0.946, -6.411e-5
-0.945, -6.213e-5
-0.944, -6.013e-5
-0.943, -5.812e-5
-0.942, -5.610e-5
-0.941, -5.400e-5
-0.940, -5.195e-5
-0.939, -4.979e-5
-0.938, -4.759e-5
-0.937, -4.550e-5
-0.936, -4.321e-5
-0.935, -4.099e-5
-0.934, -3.872e-5
-0.933, -3.636e-5
-0.932, -3.415e-5
-0.931, -3.179e-5
-0.930, -2.952e-5
-0.929, -2.711e-5
-0.928, -2.467e-5
-0.927, -2.231e-5
-0.926, -1.981e-5
-0.925, -1.738e-5
-0.924, -1.494e-5
-0.923, -1.234e-5
-0.922, -9.869e-6
-0.921, -7.133e-6
-0.920, -4.628e-6
-0.919, -2.107e-6
-0.918, 5.426e-7
-0.917, 3.078e-6
-0.916, 5.746e-6
-0.915, 8.374e-6
-0.914, 1.096e-5
-0.913, 1.373e-5
-0.912, 1.632e-5
-0.911, 1.909e-5
-0.910, 2.182e-5
-0.909, 2.454e-5
-0.908, 2.737e-5
-0.907, 3.008e-5
-0.906, 3.292e-5
-0.905, 3.571e-5
-0.904, 3.852e-5
-0.903, 4.141e-5
-0.902, 4.409e-5
-0.901, 4.704e-5
-0.900, 4.987e-5
-0.899, 5.266e-5
-0.898, 5.559e-5
-0.897, 5.844e-5
-0.896, 6.120e-5
-0.895, 6.403e-5
-0.894, 6.693e-5
-0.893, 6.990e-5
-0.892, 7.273e-5
-0.891, 7.578e-5
-0.890, 7.867e-5
-0.889, 8.156e-5
-0.888, 8.460e-5
-0.887, 8.742e-5
-0.886, 9.041e-5
-0.885, 9.331e-5
-0.884, 9.624e-5
-0.883, 9.928e-5
-0.882, 1.022e-4
-0.881, 1.052e-4
-0.880, 1.081e-4
-0.879, 1.110e-4
-0.878, 1.140e-4
-0.877, 1.169e-4
-0.876, 1.199e-4
-0.875, 1.228e-4
-0.874, 1.257e-4
-0.873, 1.287e-4
-0.872, 1.315e-4
-0.871, 1.345e-4
-0.870, 1.376e-4
-0.869, 1.405e-4
-0.868, 1.434e-4
-0.867, 1.462e-4
-0.866, 1.491e-4
-0.865, 1.520e-4
-0.864, 1.547e-4
-0.863, 1.576e-4
-0.862, 1.604e-4
-0.861, 1.632e-4
-0.860, 1.659e-4
-0.859, 1.688e-4
-0.858, 1.715e-4
-0.857, 1.742e-4
-0.856, 1.769e-4
-0.855, 1.796e-4
-0.854, 1.823e-4
-0.853, 1.850e-4
-0.852, 1.875e-4
-0.851, 1.901e-4
-0.850, 1.927e-4
-0.849, 1.952e-4
-0.848, 1.979e-4
-0.847, 2.002e-4
-0.846, 2.028e-4
-0.845, 2.051e-4
-0.844, 2.074e-4
-0.843, 2.099e-4
-0.842, 2.122e-4
-0.841, 2.146e-4
-0.840, 2.169e-4
-0.839, 2.191e-4
-0.838, 2.214e-4
-0.837, 2.235e-4
-0.836, 2.257e-4
-0.835, 2.278e-4
-0.834, 2.298e-4
-0.833, 2.319e-4
-0.832, 2.339e-4
-0.831, 2.359e-4
-0.830, 2.378e-4
-0.829, 2.396e-4
-0.828, 2.414e-4
-0.827, 2.431e-4
-0.826, 2.449e-4
-0.825, 2.465e-4
-0.824, 2.480e-4
-0.823, 2.496e-4
-0.822, 2.510e-4
-0.821, 2.525e-4
-0.820, 2.539e-4
-0.819, 2.548e-4
-0.818, 2.560e-4
-0.817, 2.572e-4
-0.816, 2.584e-4
-0.815, 2.595e-4
-0.814, 2.605e-4
-0.813, 2.615e-4
-0.812, 2.622e-4
-0.811, 2.632e-4
-0.810, 2.639e-4
-0.809, 2.645e-4
-0.808, 2.652e-4
-0.807, 2.657e-4
-0.806, 2.662e-4
-0.805, 2.666e-4
-0.804, 2.668e-4
-0.803, 2.671e-4
-0.802, 2.672e-4
-0.801, 2.673e-4
-0.800, 2.672e-4
-0.799, 2.671e-4
-0.798, 2.670e-4
-0.797, 2.667e-4
-0.796, 2.664e-4
-0.795, 2.660e-4
-0.794, 2.653e-4
-0.793, 2.647e-4
-0.792, 2.640e-4
-0.791, 2.634e-4
-0.790, 2.625e-4
-0.789, 2.616e-4
-0.788, 2.608e-4
-0.787, 2.596e-4
-0.786, 2.586e-4
-0.785, 2.574e-4
-0.784, 2.561e-4
-0.783, 2.549e-4
-0.782, 2.534e-4
-0.781, 2.520e-4
-0.780, 2.505e-4
-0.779, 2.490e-4
-0.778, 2.474e-4
-0.777, 2.456e-4
-0.776, 2.440e-4
-0.775, 2.422e-4
-0.774, 2.404e-4
-0.773, 2.386e-4
-0.772, 2.367e-4
-0.771, 2.348e-4
-0.770, 2.329e-4
-0.769, 2.309e-4
-0.768, 2.292e-4
-0.767, 2.271e-4
-0.766, 2.251e-4
-0.765, 2.231e-4
-0.764, 2.210e-4
-0.763, 2.190e-4
-0.762, 2.169e-4
-0.761, 2.149e-4
-0.760, 2.129e-4
-0.759, 2.109e-4
-0.758, 2.089e-4
-0.757, 2.068e-4
-0.756, 2.048e-4
-0.755, 2.029e-4
-0.754, 2.009e-4
-0.753, 1.990e-4
-0.752, 1.970e-4
-0.751, 1.952e-4
-0.750, 1.933e-4
-0.749, 1.914e-4
-0.748, 1.896e-4
-0.747, 1.877e-4
-0.746, 1.860e-4
-0.745, 1.842e-4
-0.744, 1.824e-4
-0.743, 1.807e-4
-0.742, 1.789e-4
-0.741, 1.773e-4
-0.740, 1.756e-4
-0.739, 1.740e-4
-0.738, 1.724e-4
-0.737, 1.708e-4
-0.736, 1.693e-4
-0.735, 1.677e-4
-0.734, 1.662e-4
-0.733, 1.647e-4
-0.732, 1.632e-4
-0.731, 1.618e-4
-0.730, 1.603e-4
-0.729, 1.589e-4
-0.728, 1.575e-4
-0.727, 1.562e-4
-0.726, 1.548e-4
-0.725, 1.535e-4
-0.724, 1.522e-4
-0.723, 1.509e-4
-0.722, 1.496e-4
-0.721, 1.484e-4
-0.720, 1.471e-4
-0.719, 1.459e-4
-0.718, 1.448e-4
-0.717, 1.436e-4
-0.716, 1.424e-4
-0.715, 1.413e-4
-0.714, 1.402e-4
-0.713, 1.390e-4
-0.712, 1.380e-4
-0.711, 1.369e-4
-0.710, 1.358e-4
-0.709, 1.348e-4
-0.708, 1.337e-4
-0.707, 1.327e-4
-0.706, 1.317e-4
-0.705, 1.307e-4
-0.704, 1.298e-4
-0.703, 1.288e-4
-0.702, 1.279e-4
-0.701, 1.269e-4
-0.700, 1.260e-4
-0.699, 1.251e-4
-0.698, 1.242e-4
-0.697, 1.233e-4
-0.696, 1.224e-4
-0.695, 1.216e-4
-0.694, 1.207e-4
-0.693, 1.199e-4
-0.692, 1.190e-4
-0.691, 1.182e-4
-0.690, 1.174e-4
-0.689, 1.166e-4
-0.688, 1.158e-4
-0.687, 1.150e-4
-0.686, 1.142e-4
-0.685, 1.135e-4
-0.684, 1.127e-4
-0.683, 1.120e-4
-0.682, 1.113e-4
-0.681, 1.105e-4
-0.680, 1.098e-4
-0.679, 1.091e-4
-0.678, 1.084e-4
-0.677, 1.077e-4
-0.676, 1.070e-4
-0.675, 1.064e-4
-0.674, 1.057e-4
-0.673, 1.051e-4
-0.672, 1.044e-4
-0.671, 1.038e-4
-0.670, 1.031e-4
-0.669, 1.025e-4
-0.668, 1.019e-4
-0.667, 1.013e-4
-0.666, 1.006e-4
-0.665, 1.000e-4
-0.664, 9.943e-5
-0.663, 9.884e-5
-0.662, 9.825e-5
-0.661, 9.766e-5
-0.660, 9.710e-5
-0.659, 9.653e-5
-0.658, 9.597e-5
-0.657, 9.542e-5
-0.656, 9.487e-5
-0.655, 9.434e-5
-0.654, 9.380e-5
-0.653, 9.326e-5
-0.652, 9.274e-5
-0.651, 9.221e-5
-0.650, 9.171e-5
-0.649, 9.119e-5
-0.648, 9.068e-5
-0.647, 9.018e-5
-0.646, 8.967e-5
-0.645, 8.919e-5
-0.644, 8.870e-5
-0.643, 8.822e-5
-0.642, 8.775e-5
-0.641, 8.728e-5
-0.640, 8.682e-5
-0.639, 8.635e-5
-0.638, 8.589e-5
-0.637, 8.545e-5
-0.636, 8.498e-5
-0.635, 8.455e-5
-0.634, 8.409e-5
-0.633, 8.365e-5
-0.632, 8.322e-5
-0.631, 8.278e-5
-0.630, 8.236e-5
-0.629, 8.193e-5
-0.628, 8.151e-5
-0.627, 8.110e-5
-0.626, 8.067e-5
-0.625, 8.028e-5
-0.624, 7.987e-5
-0.623, 7.946e-5
-0.622, 7.907e-5
-0.621, 7.866e-5
-0.620, 7.827e-5
-0.619, 7.788e-5
-0.618, 7.749e-5
-0.617, 7.711e-5
-0.616, 7.672e-5
-0.615, 7.635e-5
-0.614, 7.598e-5
-0.613, 7.561e-5
-0.612, 7.525e-5
-0.611, 7.488e-5
-0.610, 7.453e-5
-0.609, 7.417e-5
-0.608, 7.382e-5
-0.607, 7.347e-5
-0.606, 7.311e-5
-0.605, 7.277e-5
-0.604, 7.242e-5
-0.603, 7.207e-5
-0.602, 7.174e-5
-0.601, 7.139e-5
-0.600, 7.106e-5
-0.599, 7.072e-5
-0.598, 7.039e-5
-0.597, 7.007e-5
-0.596, 6.974e-5
-0.595, 6.943e-5
-0.594, 6.911e-5
-0.593, 6.879e-5
-0.592, 6.848e-5
-0.591, 6.816e-5
-0.590, 6.786e-5
-0.589, 6.754e-5
-0.588, 6.724e-5
-0.587, 6.694e-5
-0.586, 6.662e-5
-0.585, 6.633e-5
-0.584, 6.602e-5
-0.583, 6.572e-5
-0.582, 6.543e-5
-0.581, 6.513e-5
-0.580, 6.485e-5
-0.579, 6.456e-5
-0.578, 6.428e-5
-0.577, 6.401e-5
-0.576, 6.372e-5
-0.575, 6.345e-5
-0.574, 6.316e-5
-0.573, 6.288e-5
-0.572, 6.262e-5
-0.571, 6.233e-5
-0.570, 6.206e-5
-0.569, 6.179e-5
-0.568, 6.153e-5
-0.567, 6.127e-5
-0.566, 6.100e-5
-0.565, 6.075e-5
-0.564, 6.050e-5
-0.563, 6.025e-5
-0.562, 6.000e-5
-0.561, 5.974e-5
-0.560, 5.949e-5
-0.559, 5.924e-5
-0.558, 5.898e-5
-0.557, 5.874e-5
-0.556, 5.848e-5
-0.555, 5.824e-5
-0.554, 5.799e-5
-0.553, 5.774e-5
-0.552, 5.750e-5
-0.551, 5.725e-5
-0.550, 5.702e-5
-0.549, 5.678e-5
-0.548, 5.655e-5
-0.547, 5.633e-5
-0.546, 5.609e-5
-0.545, 5.587e-5
-0.544, 5.565e-5
-0.543, 5.542e-5
-0.542, 5.520e-5
-0.541, 5.497e-5
-0.540, 5.476e-5
-0.539, 5.453e-5
-0.538, 5.430e-5
-0.537, 5.409e-5
-0.536, 5.387e-5
-0.535, 5.366e-5
-0.534, 5.345e-5
-0.533, 5.323e-5
-0.532, 5.303e-5
-0.531, 5.281e-5
-0.530, 5.261e-5
-0.529, 5.240e-5
-0.528, 5.219e-5
-0.527, 5.199e-5
-0.526, 5.177e-5
-0.525, 5.158e-5
-0.524, 5.137e-5
-0.523, 5.116e-5
-0.522, 5.097e-5
-0.521, 5.075e-5
-0.520, 5.056e-5
-0.519, 5.036e-5
-0.518, 5.016e-5
-0.517, 4.998e-5
-0.516, 4.977e-5
-0.515, 4.959e-5
-0.514, 4.940e-5
-0.513, 4.921e-5
-0.512, 4.903e-5
-0.511, 4.883e-5
-0.510, 4.866e-5
-0.509, 4.847e-5
-0.508, 4.828e-5
-0.507, 4.810e-5
-0.506, 4.791e-5
-0.505, 4.773e-5
-0.504, 4.755e-5
-0.503, 4.737e-5
-0.502, 4.720e-5
-0.501, 4.702e-5
-0.500, 4.678e-5
-0.501, 4.652e-5
-0.502, 4.630e-5
-0.503, 4.610e-5
-0.504, 4.590e-5
-0.505, 4.571e-5
-0.506, 4.552e-5
-0.507, 4.532e-5
-0.508, 4.514e-5
-0.509, 4.494e-5
-0.510, 4.477e-5
-0.511, 4.458e-5
-0.512, 4.439e-5
-0.513, 4.422e-5
-0.514, 4.403e-5
-0.515, 4.386e-5
-0.516, 4.368e-5
-0.517, 4.351e-5
-0.518, 4.334e-5
-0.519, 4.315e-5
-0.520, 4.300e-5
-0.521, 4.282e-5
-0.522, 4.266e-5
-0.523, 4.250e-5
-0.524, 4.233e-5
-0.525, 4.217e-5
-0.526, 4.201e-5
-0.527, 4.185e-5
-0.528, 4.170e-5
-0.529, 4.153e-5
-0.530, 4.139e-5
-0.531, 4.123e-5
-0.532, 4.107e-5
-0.533, 4.093e-5
-0.534, 4.076e-5
-0.535, 4.062e-5
-0.536, 4.046e-5
-0.537, 4.029e-5
-0.538, 4.015e-5
-0.539, 3.998e-5
-0.540, 3.983e-5
-0.541, 3.968e-5
-0.542, 3.952e-5
-0.543, 3.938e-5
-0.544, 3.922e-5
-0.545, 3.908e-5
-0.546, 3.893e-5
-0.547, 3.879e-5
-0.548, 3.866e-5
-0.549, 3.850e-5
-0.550, 3.836e-5
-0.551, 3.822e-5
-0.552, 3.808e-5
-0.553, 3.795e-5
-0.554, 3.779e-5
-0.555, 3.767e-5
-0.556, 3.752e-5
-0.557, 3.738e-5
-0.558, 3.726e-5
-0.559, 3.711e-5
-0.560, 3.699e-5
-0.561, 3.685e-5
-0.562, 3.672e-5
-0.563, 3.659e-5
-0.564, 3.644e-5
-0.565, 3.632e-5
-0.566, 3.619e-5
-0.567, 3.605e-5
-0.568, 3.593e-5
-0.569, 3.579e-5
-0.570, 3.566e-5
-0.571, 3.553e-5
-0.572, 3.539e-5
-0.573, 3.528e-5
-0.574, 3.513e-5
-0.575, 3.501e-5
-0.576, 3.488e-5
-0.577, 3.475e-5
-0.578, 3.463e-5
-0.579, 3.450e-5
-0.580, 3.438e-5
-0.581, 3.426e-5
-0.582, 3.413e-5
-0.583, 3.402e-5
-0.584, 3.388e-5
-0.585, 3.377e-5
-0.586, 3.365e-5
-0.587, 3.352e-5
-0.588, 3.341e-5
-0.589, 3.328e-5
-0.590, 3.317e-5
-0.591, 3.305e-5
-0.592, 3.293e-5
-0.593, 3.283e-5
-0.594, 3.270e-5
-0.595, 3.260e-5
-0.596, 3.248e-5
-0.597, 3.236e-5
-0.598, 3.226e-5
-0.599, 3.213e-5
-0.600, 3.202e-5
-0.601, 3.191e-5
-0.602, 3.179e-5
-0.603, 3.168e-5
-0.604, 3.155e-5
-0.605, 3.145e-5
-0.606, 3.133e-5
-0.607, 3.121e-5
-0.608, 3.111e-5
-0.609, 3.098e-5
-0.610, 3.089e-5
-0.611, 3.077e-5
-0.612, 3.066e-5
-0.613, 3.055e-5
-0.614, 3.044e-5
-0.615, 3.034e-5
-0.616, 3.023e-5
-0.617, 3.012e-5
-0.618, 3.002e-5
-0.619, 2.991e-5
-0.620, 2.981e-5
-0.621, 2.971e-5
-0.622, 2.960e-5
-0.623, 2.951e-5
-0.624, 2.939e-5
-0.625, 2.930e-5
-0.626, 2.920e-5
-0.627, 2.909e-5
-0.628, 2.899e-5
-0.629, 2.888e-5
-0.630, 2.878e-5
-0.631, 2.867e-5
-0.632, 2.856e-5
-0.633, 2.847e-5
-0.634, 2.835e-5
-0.635, 2.825e-5
-0.636, 2.815e-5
-0.637, 2.804e-5
-0.638, 2.796e-5
-0.639, 2.784e-5
-0.640, 2.776e-5
-0.641, 2.765e-5
-0.642, 2.755e-5
-0.643, 2.746e-5
-0.644, 2.735e-5
-0.645, 2.726e-5
-0.646, 2.716e-5
-0.647, 2.706e-5
-0.648, 2.697e-5
-0.649, 2.686e-5
-0.650, 2.677e-5
-0.651, 2.667e-5
-0.652, 2.657e-5
-0.653, 2.648e-5
-0.654, 2.637e-5
-0.655, 2.628e-5
-0.656, 2.618e-5
-0.657, 2.608e-5
-0.658, 2.599e-5
-0.659, 2.588e-5
-0.660, 2.580e-5
-0.661, 2.569e-5
-0.662, 2.559e-5
-0.663, 2.550e-5
-0.664, 2.539e-5
-0.665, 2.530e-5
-0.666, 2.519e-5
-0.667, 2.509e-5
-0.668, 2.500e-5
-0.669, 2.489e-5
-0.670, 2.480e-5
-0.671, 2.470e-5
-0.672, 2.460e-5
-0.673, 2.451e-5
-0.674, 2.440e-5
-0.675, 2.431e-5
-0.676, 2.421e-5
-0.677, 2.410e-5
-0.678, 2.401e-5
-0.679, 2.390e-5
-0.680, 2.380e-5
-0.681, 2.370e-5
-0.682, 2.359e-5
-0.683, 2.349e-5
-0.684, 2.338e-5
-0.685, 2.328e-5
-0.686, 2.317e-5
-0.687, 2.307e-5
-0.688, 2.296e-5
-0.689, 2.286e-5
-0.690, 2.275e-5
-0.691, 2.265e-5
-0.692, 2.254e-5
-0.693, 2.243e-5
-0.694, 2.231e-5
-0.695, 2.221e-5
-0.696, 2.208e-5
-0.697, 2.197e-5
-0.698, 2.186e-5
-0.699, 2.173e-5
-0.700, 2.162e-5
-0.701, 2.149e-5
-0.702, 2.137e-5
-0.703, 2.126e-5
-0.704, 2.113e-5
-0.705, 2.101e-5
-0.706, 2.088e-5
-0.707, 2.075e-5
-0.708, 2.062e-5
-0.709, 2.048e-5
-0.710, 2.035e-5
-0.711, 2.022e-5
-0.712, 2.007e-5
-0.713, 1.994e-5
-0.714, 1.980e-5
-0.715, 1.965e-5
-0.716, 1.950e-5
-0.717, 1.933e-5
-0.718, 1.919e-5
-0.719, 1.903e-5
-0.720, 1.888e-5
-0.721, 1.871e-5
-0.722, 1.855e-5
-0.723, 1.838e-5
-0.724, 1.821e-5
-0.725, 1.804e-5
-0.726, 1.786e-5
-0.727, 1.768e-5
-0.728, 1.749e-5
-0.729, 1.730e-5
-0.730, 1.711e-5
-0.731, 1.690e-5
-0.732, 1.672e-5
-0.733, 1.651e-5
-0.734, 1.630e-5
-0.735, 1.608e-5
-0.736, 1.585e-5
-0.737, 1.564e-5
-0.738, 1.540e-5
-0.739, 1.516e-5
-0.740, 1.493e-5
-0.741, 1.467e-5
-0.742, 1.444e-5
-0.743, 1.418e-5
-0.744, 1.389e-5
-0.745, 1.362e-5
-0.746, 1.333e-5
-0.747, 1.305e-5
-0.748, 1.274e-5
-0.749, 1.243e-5
-0.750, 1.212e-5
-0.751, 1.180e-5
-0.752, 1.149e-5
-0.753, 1.113e-5
-0.754, 1.079e-5
-0.755, 1.044e-5
-0.756, 1.007e-5
-0.757, 9.705e-6
-0.758, 9.296e-6
-0.759, 8.912e-6
-0.760, 8.501e-6
-0.761, 8.071e-6
-0.762, 7.664e-6
-0.763, 7.201e-6
-0.764, 6.755e-6
-0.765, 6.306e-6
-0.766, 5.800e-6
-0.767, 5.336e-6
-0.768, 4.745e-6
-0.769, 4.248e-6
-0.770, 3.725e-6
-0.771, 3.157e-6
-0.772, 2.619e-6
-0.773, 1.998e-6
-0.774, 1.434e-6
-0.775, 8.431e-7
-0.776, 1.623e-7
-0.777, -4.369e-7
-0.778, -1.144e-6
-0.779, -1.814e-6
-0.780, -2.484e-6
-0.781, -3.248e-6
-0.782, -3.932e-6
-0.783, -4.733e-6
-0.784, -5.505e-6
-0.785, -6.263e-6
-0.786, -7.135e-6
-0.787, -7.906e-6
-0.788, -8.766e-6
-0.789, -9.646e-6
-0.790, -1.051e-5
-0.791, -1.149e-5
-0.792, -1.240e-5
-0.793, -1.335e-5
-0.794, -1.427e-5
-0.795, -1.528e-5
-0.796, -1.636e-5
-0.797, -1.737e-5
-0.798, -1.849e-5
-0.799, -1.962e-5
-0.800, -2.071e-5
-0.801, -2.189e-5
-0.802, -2.305e-5
-0.803, -2.429e-5
-0.804, -2.550e-5
-0.805, -2.677e-5
-0.806, -2.813e-5
-0.807, -2.940e-5
-0.808, -3.078e-5
-0.809, -3.212e-5
-0.810, -3.346e-5
-0.811, -3.495e-5
-0.812, -3.633e-5
-0.813, -3.783e-5
-0.814, -3.935e-5
-0.815, -4.087e-5
-0.816, -4.248e-5
-0.817, -4.399e-5
-0.818, -4.565e-5
-0.819, -4.701e-5
-0.820, -4.856e-5
-0.821, -5.043e-5
-0.822, -5.205e-5
-0.823, -5.388e-5
-0.824, -5.570e-5
-0.825, -5.749e-5
-0.826, -5.938e-5
-0.827, -6.123e-5
-0.828, -6.318e-5
-0.829, -6.512e-5
-0.830, -6.700e-5
-0.831, -6.904e-5
-0.832, -7.102e-5
-0.833, -7.311e-5
-0.834, -7.517e-5
-0.835, -7.721e-5
-0.836, -7.939e-5
-0.837, -8.145e-5
-0.838, -8.368e-5
-0.839, -8.582e-5
-0.840, -8.803e-5
-0.841, -9.036e-5
-0.842, -9.256e-5
-0.843, -9.489e-5
-0.844, -9.723e-5
-0.845, -9.936e-5
-0.846, -1.018e-4
-0.847, -1.042e-4
-0.848, -1.067e-4
-0.849, -1.091e-4
-0.850, -1.115e-4
-0.851, -1.140e-4
-0.852, -1.164e-4
-0.853, -1.191e-4
-0.854, -1.216e-4
-0.855, -1.241e-4
-0.856, -1.268e-4
-0.857, -1.293e-4
-0.858, -1.321e-4
-0.859, -1.347e-4
-0.860, -1.373e-4
-0.861, -1.401e-4
-0.862, -1.428e-4
-0.863, -1.455e-4
-0.864, -1.482e-4
-0.865, -1.509e-4
-0.866, -1.539e-4
-0.867, -1.565e-4
-0.868, -1.594e-4
-0.869, -1.622e-4
-0.870, -1.651e-4
-0.871, -1.682e-4
-0.872, -1.710e-4
-0.873, -1.739e-4
-0.874, -1.767e-4
-0.875, -1.796e-4
-0.876, -1.826e-4
-0.877, -1.854e-4
-0.878, -1.884e-4
-0.879, -1.914e-4
-0.880, -1.943e-4
-0.881, -1.973e-4
-0.882, -2.002e-4
-0.883, -2.033e-4
-0.884, -2.063e-4
-0.885, -2.092e-4
-0.886, -2.123e-4
-0.887, -2.152e-4
-0.888, -2.183e-4
-0.889, -2.213e-4
-0.890, -2.242e-4
-0.891, -2.274e-4
-0.892, -2.304e-4
-0.893, -2.334e-4
-0.894, -2.365e-4
-0.895, -2.394e-4
-0.896, -2.424e-4
-0.897, -2.453e-4
-0.898, -2.484e-4
-0.899, -2.515e-4
-0.900, -2.545e-4
-0.901, -2.576e-4
-0.902, -2.605e-4
-0.903, -2.636e-4
-0.904, -2.667e-4
-0.905, -2.696e-4
-0.906, -2.727e-4
-0.907, -2.757e-4
-0.908, -2.787e-4
-0.909, -2.817e-4
-0.910, -2.846e-4
-0.911, -2.877e-4
-0.912, -2.905e-4
-0.913, -2.935e-4
-0.914, -2.965e-4
-0.915, -2.993e-4
-0.916, -3.023e-4
-0.917, -3.052e-4
-0.918, -3.081e-4
-0.919, -3.109e-4
-0.920, -3.137e-4
-0.921, -3.167e-4
-0.922, -3.196e-4
-0.923, -3.224e-4
-0.924, -3.252e-4
-0.925, -3.278e-4
-0.926, -3.306e-4
-0.927, -3.333e-4
-0.928, -3.360e-4
-0.929, -3.386e-4
-0.930, -3.413e-4
-0.931, -3.439e-4
-0.932, -3.464e-4
-0.933, -3.490e-4
-0.934, -3.516e-4
-0.935, -3.540e-4
-0.936, -3.566e-4
-0.937, -3.589e-4
-0.938, -3.614e-4
-0.939, -3.637e-4
-0.940, -3.660e-4
-0.941, -3.684e-4
-0.942, -3.706e-4
-0.943, -3.728e-4
-0.944, -3.750e-4
-0.945, -3.770e-4
-0.946, -3.792e-4
-0.947, -3.811e-4
-0.948, -3.830e-4
-0.949, -3.850e-4
-0.950, -3.868e-4
-0.951, -3.887e-4
-0.952, -3.905e-4
-0.953, -3.923e-4
-0.954, -3.939e-4
-0.955, -3.956e-4
-0.956, -3.973e-4
-0.957, -3.988e-4
-0.958, -4.003e-4
-0.959, -4.018e-4
-0.960, -4.031e-4
-0.961, -4.044e-4
-0.962, -4.056e-4
-0.963, -4.069e-4
-0.964, -4.079e-4
-0.965, -4.090e-4
-0.966, -4.100e-4
-0.967, -4.108e-4
-0.968, -4.117e-4
-0.969, -4.125e-4
-0.970, -4.131e-4
-0.971, -4.138e-4
-0.972, -4.143e-4
-0.973, -4.149e-4
-0.974, -4.153e-4
-0.975, -4.155e-4
-0.976, -4.158e-4
-0.977, -4.159e-4
-0.978, -4.160e-4
-0.979, -4.160e-4
-0.980, -4.157e-4
-0.981, -4.157e-4
-0.982, -4.153e-4
-0.983, -4.150e-4
-0.984, -4.146e-4
-0.985, -4.139e-4
-0.986, -4.134e-4
-0.987, -4.126e-4
-0.988, -4.119e-4
-0.989, -4.110e-4
-0.990, -4.100e-4
-0.991, -4.091e-4
-0.992, -4.079e-4
-0.993, -4.067e-4
-0.994, -4.055e-4
-0.995, -4.041e-4
-0.996, -4.027e-4
-0.997, -4.011e-4
-0.998, -3.995e-4
-0.999, -3.978e-4
-1.000, -3.962e-4
-1.001, -3.945e-4
-1.002, -3.926e-4
-1.003, -3.908e-4
-1.004, -3.889e-4
-1.005, -3.868e-4
-1.006, -3.849e-4
-1.007, -3.828e-4
-1.008, -3.808e-4
-1.009, -3.787e-4
-1.010, -3.766e-4
-1.011, -3.745e-4
-1.012, -3.722e-4
-1.013, -3.701e-4
-1.014, -3.678e-4
-1.015, -3.656e-4
-1.016, -3.634e-4
-1.017, -3.611e-4
-1.018, -3.589e-4
-1.019, -3.567e-4
-1.020, -3.544e-4
-1.021, -3.522e-4
-1.022, -3.500e-4
-1.023, -3.478e-4
-1.024, -3.457e-4
-1.025, -3.435e-4
-1.026, -3.413e-4
-1.027, -3.391e-4
-1.028, -3.371e-4
-1.029, -3.349e-4
-1.030, -3.328e-4
-1.031, -3.308e-4
-1.032, -3.288e-4
-1.033, -3.268e-4
-1.034, -3.248e-4
-1.035, -3.229e-4
-1.036, -3.210e-4
-1.037, -3.191e-4
-1.038, -3.172e-4
-1.039, -3.154e-4
-1.040, -3.136e-4
-1.041, -3.118e-4
-1.042, -3.100e-4
-1.043, -3.083e-4
-1.044, -3.066e-4
-1.045, -3.049e-4
-1.046, -3.033e-4
-1.047, -3.016e-4
-1.048, -3.000e-4
-1.049, -2.984e-4
-1.050, -2.968e-4
-1.051, -2.953e-4
-1.052, -2.938e-4
-1.053, -2.923e-4
-1.054, -2.908e-4
-1.055, -2.894e-4
-1.056, -2.880e-4
-1.057, -2.866e-4
-1.058, -2.852e-4
-1.059, -2.838e-4
-1.060, -2.825e-4
-1.061, -2.812e-4
-1.062, -2.799e-4
-1.063, -2.786e-4
-1.064, -2.773e-4
-1.065, -2.761e-4
-1.066, -2.748e-4
-1.067, -2.736e-4
-1.068, -2.724e-4
-1.069, -2.713e-4
-1.070, -2.701e-4
-1.071, -2.690e-4
-1.072, -2.678e-4
-1.073, -2.667e-4
-1.074, -2.657e-4
-1.075, -2.646e-4
-1.076, -2.635e-4
-1.077, -2.625e-4
-1.078, -2.614e-4
-1.079, -2.604e-4
-1.080, -2.594e-4
-1.081, -2.584e-4
-1.082, -2.574e-4
-1.083, -2.564e-4
-1.084, -2.555e-4
-1.085, -2.545e-4
-1.086, -2.536e-4
-1.087, -2.527e-4
-1.088, -2.517e-4
-1.089, -2.509e-4
-1.090, -2.500e-4
-1.091, -2.491e-4
-1.092, -2.482e-4
-1.093, -2.473e-4
-1.094, -2.465e-4
-1.095, -2.456e-4
-1.096, -2.448e-4
-1.097, -2.440e-4
-1.098, -2.432e-4
-1.099, -2.424e-4
-1.100, -2.416e-4
-1.101, -2.408e-4
-1.102, -2.400e-4
-1.103, -2.393e-4
-1.104, -2.385e-4
-1.105, -2.378e-4
-1.106, -2.371e-4
-1.107, -2.364e-4
-1.108, -2.356e-4
-1.109, -2.349e-4
-1.110, -2.342e-4
-1.111, -2.335e-4
-1.112, -2.328e-4
-1.113, -2.321e-4
-1.114, -2.315e-4
-1.115, -2.308e-4
-1.116, -2.301e-4
-1.117, -2.295e-4
-1.118, -2.288e-4
-1.119, -2.282e-4
-1.120, -2.275e-4
-1.121, -2.269e-4
-1.122, -2.263e-4
-1.123, -2.256e-4
-1.124, -2.250e-4
-1.125, -2.244e-4
-1.126, -2.238e-4
-1.127, -2.232e-4
-1.128, -2.227e-4
-1.129, -2.221e-4
-1.130, -2.215e-4
-1.131, -2.209e-4
-1.132, -2.204e-4
-1.133, -2.198e-4
-1.134, -2.193e-4
-1.135, -2.187e-4
-1.136, -2.182e-4
-1.137, -2.177e-4
-1.138, -2.171e-4
-1.139, -2.166e-4
-1.140, -2.161e-4
-1.141, -2.156e-4
-1.142, -2.151e-4
-1.143, -2.146e-4
-1.144, -2.141e-4
-1.145, -2.136e-4
-1.146, -2.131e-4
-1.147, -2.126e-4
-1.148, -2.121e-4
-1.149, -2.116e-4
-1.150, -2.112e-4
-1.151, -2.107e-4
-1.152, -2.102e-4
-1.153, -2.098e-4
-1.154, -2.093e-4
-1.155, -2.088e-4
-1.156, -2.084e-4
-1.157, -2.079e-4
-1.158, -2.074e-4
-1.159, -2.070e-4
-1.160, -2.066e-4
-1.161, -2.061e-4
-1.162, -2.057e-4
-1.163, -2.053e-4
-1.164, -2.049e-4
-1.165, -2.045e-4
-1.166, -2.041e-4
-1.167, -2.037e-4
-1.168, -2.033e-4
-1.169, -2.029e-4
-1.170, -2.025e-4
-1.171, -2.021e-4
-1.172, -2.018e-4
-1.173, -2.014e-4
-1.174, -2.010e-4
-1.175, -2.006e-4
-1.176, -2.002e-4
-1.177, -1.998e-4
-1.178, -1.995e-4
-1.179, -1.991e-4
-1.180, -1.987e-4
-1.181, -1.984e-4
-1.182, -1.980e-4
-1.183, -1.976e-4
-1.184, -1.972e-4
-1.185, -1.969e-4
-1.186, -1.965e-4
-1.187, -1.962e-4
-1.188, -1.958e-4
-1.189, -1.955e-4
-1.190, -1.951e-4
-1.191, -1.948e-4
-1.192, -1.945e-4
-1.193, -1.941e-4
-1.194, -1.938e-4
-1.195, -1.935e-4
-1.196, -1.932e-4
-1.197, -1.929e-4
-1.198, -1.926e-4
-1.199, -1.923e-4
-1.200, -1.918e-4
-1.199, -1.913e-4
-1.198, -1.908e-4
-1.197, -1.904e-4
-1.196, -1.900e-4
-1.195, -1.896e-4
-1.194, -1.893e-4
-1.193, -1.889e-4
-1.192, -1.885e-4
-1.191, -1.882e-4
-1.190, -1.879e-4
-1.189, -1.875e-4
-1.188, -1.872e-4
-1.187, -1.869e-4
-1.186, -1.866e-4
-1.185, -1.862e-4
-1.184, -1.859e-4
-1.183, -1.857e-4
-1.182, -1.853e-4
-1.181, -1.851e-4
-1.180, -1.848e-4
-1.179, -1.845e-4
-1.178, -1.842e-4
-1.177, -1.839e-4
-1.176, -1.836e-4
-1.175, -1.833e-4
-1.174, -1.831e-4
-1.173, -1.828e-4
-1.172, -1.825e-4
-1.171, -1.822e-4
-1.170, -1.820e-4
-1.169, -1.817e-4
-1.168, -1.815e-4
-1.167, -1.812e-4
-1.166, -1.810e-4
-1.165, -1.807e-4
-1.164, -1.805e-4
-1.163, -1.802e-4
-1.162, -1.800e-4
-1.161, -1.797e-4
-1.160, -1.795e-4
-1.159, -1.792e-4
-1.158, -1.790e-4
-1.157, -1.788e-4
-1.156, -1.785e-4
-1.155, -1.783e-4
-1.154, -1.780e-4
-1.153, -1.778e-4
-1.152, -1.776e-4
-1.151, -1.773e-4
-1.150, -1.771e-4
-1.149, -1.768e-4
-1.148, -1.766e-4
-1.147, -1.763e-4
-1.146, -1.761e-4
-1.145, -1.759e-4
-1.144, -1.757e-4
-1.143, -1.754e-4
-1.142, -1.752e-4
-1.141, -1.750e-4
-1.140, -1.748e-4
-1.139, -1.746e-4
-1.138, -1.744e-4
-1.137, -1.742e-4
-1.136, -1.740e-4
-1.135, -1.738e-4
-1.134, -1.735e-4
-1.133, -1.733e-4
-1.132, -1.731e-4
-1.131, -1.729e-4
-1.130, -1.727e-4
-1.129, -1.725e-4
-1.128, -1.723e-4
-1.127, -1.721e-4
-1.126, -1.719e-4
-1.125, -1.716e-4
-1.124, -1.714e-4
-1.123, -1.712e-4
-1.122, -1.710e-4
-1.121, -1.708e-4
-1.120, -1.706e-4
-1.119, -1.704e-4
-1.118, -1.702e-4
-1.117, -1.700e-4
-1.116, -1.698e-4
-1.115, -1.696e-4
-1.114, -1.694e-4
-1.113, -1.692e-4
-1.112, -1.690e-4
-1.111, -1.689e-4
-1.110, -1.687e-4
-1.109, -1.685e-4
-1.108, -1.683e-4
-1.107, -1.681e-4
-1.106, -1.679e-4
-1.105, -1.677e-4
-1.104, -1.675e-4
-1.103, -1.673e-4
-1.102, -1.671e-4
-1.101, -1.669e-4
-1.100, -1.667e-4
-1.099, -1.665e-4
-1.098, -1.663e-4
-1.097, -1.661e-4
-1.096, -1.659e-4
-1.095, -1.657e-4
-1.094, -1.656e-4
-1.093, -1.654e-4
-1.092, -1.652e-4
-1.091, -1.650e-4
-1.090, -1.648e-4
-1.089, -1.646e-4
-1.088, -1.645e-4
-1.087, -1.643e-4
-1.086, -1.641e-4
-1.085, -1.639e-4
-1.084, -1.637e-4
-1.083, -1.635e-4
-1.082, -1.633e-4
-1.081, -1.631e-4
-1.080, -1.629e-4
-1.079, -1.627e-4
-1.078, -1.625e-4
-1.077, -1.623e-4
-1.076, -1.621e-4
-1.075, -1.619e-4
-1.074, -1.617e-4
-1.073, -1.615e-4
-1.072, -1.613e-4
-1.071, -1.611e-4
-1.070, -1.609e-4
-1.069, -1.607e-4
-1.068, -1.605e-4
-1.067, -1.603e-4
-1.066, -1.601e-4
-1.065, -1.599e-4
-1.064, -1.597e-4
-1.063, -1.594e-4
-1.062, -1.592e-4
-1.061, -1.590e-4
-1.060, -1.588e-4
-1.059, -1.586e-4
-1.058, -1.584e-4
-1.057, -1.581e-4
-1.056, -1.579e-4
-1.055, -1.577e-4
-1.054, -1.574e-4
-1.053, -1.572e-4
-1.052, -1.570e-4
-1.051, -1.567e-4
-1.050, -1.565e-4
-1.049, -1.563e-4
-1.048, -1.560e-4
-1.047, -1.558e-4
-1.046, -1.555e-4
-1.045, -1.552e-4
-1.044, -1.550e-4
-1.043, -1.547e-4
-1.042, -1.545e-4
-1.041, -1.542e-4
-1.040, -1.539e-4
-1.039, -1.536e-4
-1.038, -1.533e-4
-1.037, -1.530e-4
-1.036, -1.527e-4
-1.035, -1.524e-4
-1.034, -1.521e-4
-1.033, -1.518e-4
-1.032, -1.514e-4
-1.031, -1.511e-4
-1.030, -1.508e-4
-1.029, -1.505e-4
-1.028, -1.501e-4
-1.027, -1.498e-4
-1.026, -1.495e-4
-1.025, -1.491e-4
-1.024, -1.487e-4
-1.023, -1.483e-4
-1.022, -1.479e-4
-1.021, -1.475e-4
-1.020, -1.471e-4
-1.019, -1.467e-4
-1.018, -1.462e-4
-1.017, -1.458e-4
-1.016, -1.454e-4
-1.015, -1.449e-4
-1.014, -1.445e-4
-1.013, -1.439e-4
-1.012, -1.434e-4
-1.011, -1.429e-4
-1.010, -1.424e-4
-1.009, -1.419e-4
-1.008, -1.413e-4
-1.007, -1.408e-4
-1.006, -1.402e-4
-1.005, -1.396e-4
-1.004, -1.391e-4
-1.003, -1.384e-4
-1.002, -1.378e-4
-1.001, -1.372e-4
-1.000, -1.365e-4
-0.999, -1.360e-4
-0.998, -1.353e-4
-0.997, -1.346e-4
-0.996, -1.339e-4
-0.995, -1.332e-4
-0.994, -1.325e-4
-0.993, -1.316e-4
-0.992, -1.309e-4
-0.991, -1.301e-4
-0.990, -1.292e-4
-0.989, -1.284e-4
-0.988, -1.276e-4
-0.987, -1.266e-4
-0.986, -1.257e-4
-0.985, -1.248e-4
-0.984, -1.239e-4
-0.983, -1.229e-4
-0.982, -1.219e-4
-0.981, -1.209e-4
-0.980, -1.198e-4
-0.979, -1.188e-4
-0.978, -1.177e-4
-0.977, -1.166e-4
-0.976, -1.155e-4
-0.975, -1.143e-4
-0.974, -1.131e-4
-0.973, -1.118e-4
-0.972, -1.106e-4
-0.971, -1.094e-4
-0.970, -1.081e-4
-0.969, -1.069e-4
-0.968, -1.055e-4
-0.967, -1.042e-4
-0.966, -1.029e-4
-0.965, -1.015e-4
-0.964, -1.001e-4
-0.963, -9.863e-5
-0.962, -9.717e-5
-0.961, -9.569e-5
-0.960, -9.409e-5
-0.959, -9.262e-5
-0.958, -9.099e-5
-0.957, -8.939e-5
-0.956, -8.779e-5
-0.955, -8.603e-5
-0.954, -8.443e-5
-0.953, -8.269e-5
-0.952, -8.094e-5
-0.951, -7.924e-5
-0.950, -7.739e-5
-0.949, -7.560e-5
-0.948, -7.369e-5
-0.947, -7.197e-5
-0.946, -7.009e-5
-0.945, -6.800e-5
-0.944, -6.614e-5
-0.943, -6.409e-5
-0.942, -6.205e-5
-0.941, -6.011e-5
-0.940, -5.798e-5
-0.939, -5.593e-5
-0.938, -5.380e-5
-0.937, -5.171e-5
-0.936, -4.957e-5
-0.935, -4.735e-5
-0.934, -4.521e-5
-0.933, -4.290e-5
-0.932, -4.070e-5
-0.931, -3.847e-5
-0.930, -3.609e-5
-0.929, -3.381e-5
-0.928, -3.145e-5
-0.927, -2.911e-5
-0.926, -2.676e-5
-0.925, -2.426e-5
-0.924, -2.190e-5
-0.923, -1.934e-5
-0.922, -1.680e-5
-0.921, -1.425e-5
-0.920, -1.159e-5
-0.919, -9.135e-6
-0.918, -6.561e-6
-0.917, -3.967e-6
-0.916, -1.391e-6
-0.915, 1.254e-6
-0.914, 3.830e-6
-0.913, 6.569e-6
-0.912, 9.200e-6
-0.911, 1.181e-5
-0.910, 1.465e-5
-0.909, 1.728e-5
-0.908, 2.007e-5
-0.907, 2.285e-5
-0.906, 2.554e-5
-0.905, 2.841e-5
-0.904, 3.112e-5
-0.903, 3.392e-5
-0.902, 3.669e-5
-0.901, 3.949e-5
-0.900, 4.238e-5
-0.899, 4.515e-5
-0.898, 4.806e-5
-0.897, 5.100e-5
-0.896, 5.365e-5
-0.895, 5.651e-5
-0.894, 5.940e-5
-0.893, 6.237e-5
-0.892, 6.529e-5
-0.891, 6.819e-5
-0.890, 7.115e-5
-0.889, 7.401e-5
-0.888, 7.704e-5
-0.887, 7.997e-5
-0.886, 8.286e-5
-0.885, 8.588e-5
-0.884, 8.881e-5
-0.883, 9.184e-5
-0.882, 9.480e-5
-0.881, 9.771e-5
-0.880, 1.007e-4
-0.879, 1.036e-4
-0.878, 1.066e-4
-0.877, 1.096e-4
-0.876, 1.124e-4
-0.875, 1.155e-4
-0.874, 1.183e-4
-0.873, 1.213e-4
-0.872, 1.242e-4
-0.871, 1.272e-4
-0.870, 1.304e-4
-0.869, 1.332e-4
-0.868, 1.361e-4
-0.867, 1.390e-4
-0.866, 1.418e-4
-0.865, 1.448e-4
-0.864, 1.476e-4
-0.863, 1.505e-4
-0.862, 1.534e-4
-0.861, 1.562e-4
-0.860, 1.590e-4
-0.859, 1.618e-4
-0.858, 1.646e-4
-0.857, 1.675e-4
-0.856, 1.702e-4
-0.855, 1.730e-4
-0.854, 1.757e-4
-0.853, 1.784e-4
-0.852, 1.812e-4
-0.851, 1.837e-4
-0.850, 1.865e-4
-0.849, 1.890e-4
-0.848, 1.917e-4
-0.847, 1.942e-4
-0.846, 1.968e-4
-0.845, 1.993e-4
-0.844, 2.015e-4
-0.843, 2.041e-4
-0.842, 2.066e-4
-0.841, 2.089e-4
-0.840, 2.114e-4
-0.839, 2.137e-4
-0.838, 2.161e-4
-0.837, 2.183e-4
-0.836, 2.205e-4
-0.835, 2.228e-4
-0.834, 2.249e-4
-0.833, 2.271e-4
-0.832, 2.293e-4
-0.831, 2.312e-4
-0.830, 2.333e-4
-0.829, 2.352e-4
-0.828, 2.372e-4
-0.827, 2.391e-4
-0.826, 2.409e-4
-0.825, 2.428e-4
-0.824, 2.444e-4
-0.823, 2.462e-4
-0.822, 2.478e-4
-0.821, 2.493e-4
-0.820, 2.510e-4
-0.819, 2.519e-4
-0.818, 2.533e-4
-0.817, 2.547e-4
-0.816, 2.560e-4
-0.815, 2.573e-4
-0.814, 2.585e-4
-0.813, 2.596e-4
-0.812, 2.607e-4
-0.811, 2.616e-4
-0.810, 2.627e-4
-0.809, 2.634e-4
-0.808, 2.643e-4
-0.807, 2.650e-4
-0.806, 2.656e-4
-0.805, 2.663e-4
-0.804, 2.667e-4
-0.803, 2.672e-4
-0.802, 2.675e-4
-0.801, 2.677e-4
-0.800, 2.680e-4
-0.799, 2.680e-4
-0.798, 2.682e-4
-0.797, 2.681e-4
-0.796, 2.679e-4
-0.795, 2.678e-4
-0.794, 2.674e-4
-0.793, 2.669e-4
-0.792, 2.665e-4
-0.791, 2.660e-4
-0.790, 2.655e-4
-0.789, 2.648e-4
-0.788, 2.640e-4
-0.787, 2.632e-4
-0.786, 2.622e-4
-0.785, 2.614e-4
-0.784, 2.602e-4
-0.783, 2.591e-4
-0.782, 2.580e-4
-0.781, 2.567e-4
-0.780, 2.554e-4
-0.779, 2.540e-4
-0.778, 2.525e-4
-0.777, 2.510e-4
-0.776, 2.494e-4
-0.775, 2.478e-4
-0.774, 2.460e-4
-0.773, 2.443e-4
-0.772, 2.426e-4
-0.771, 2.407e-4
-0.770, 2.390e-4
-0.769, 2.370e-4
-0.768, 2.353e-4
-0.767, 2.333e-4
-0.766, 2.314e-4
-0.765, 2.294e-4
-0.764, 2.273e-4
-0.763, 2.254e-4
-0.762, 2.234e-4
-0.761, 2.213e-4
-0.760, 2.193e-4
-0.759, 2.173e-4
-0.758, 2.153e-4
-0.757, 2.133e-4
-0.756, 2.112e-4
-0.755, 2.093e-4
-0.754, 2.073e-4
-0.753, 2.053e-4
-0.752, 2.033e-4
-0.751, 2.013e-4
-0.750, 1.994e-4
-0.749, 1.975e-4
-0.748, 1.956e-4
-0.747, 1.937e-4
-0.746, 1.919e-4
-0.745, 1.900e-4
-0.744, 1.882e-4
-0.743, 1.864e-4
-0.742, 1.846e-4
-0.741, 1.829e-4
-0.740, 1.812e-4
-0.739, 1.795e-4
-0.738, 1.778e-4
-0.737, 1.762e-4
-0.736, 1.746e-4
-0.735, 1.730e-4
-0.734, 1.714e-4
-0.733, 1.698e-4
-0.732, 1.683e-4
-0.731, 1.668e-4
-0.730, 1.653e-4
-0.729, 1.638e-4
-0.728, 1.624e-4
-0.727, 1.610e-4
-0.726, 1.595e-4
-0.725, 1.582e-4
-0.724, 1.568e-4
-0.723, 1.555e-4
-0.722, 1.542e-4
-0.721, 1.529e-4
-0.720, 1.516e-4
-0.719, 1.503e-4
-0.718, 1.491e-4
-0.717, 1.479e-4
-0.716, 1.467e-4
-0.715, 1.455e-4
-0.714, 1.444e-4
-0.713, 1.432e-4
-0.712, 1.421e-4
-0.711, 1.410e-4
-0.710, 1.399e-4
-0.709, 1.388e-4
-0.708, 1.377e-4
-0.707, 1.366e-4
-0.706, 1.356e-4
-0.705, 1.346e-4
-0.704, 1.336e-4
-0.703, 1.326e-4
-0.702, 1.316e-4
-0.701, 1.306e-4
-0.700, 1.296e-4
-0.699, 1.287e-4
-0.698, 1.278e-4
-0.697, 1.268e-4
-0.696, 1.259e-4
-0.695, 1.250e-4
-0.694, 1.242e-4
-0.693, 1.233e-4
-0.692, 1.225e-4
-0.691, 1.216e-4
-0.690, 1.208e-4
-0.689, 1.199e-4
-0.688, 1.191e-4
-0.687, 1.183e-4
-0.686, 1.175e-4
-0.685, 1.167e-4
-0.684, 1.160e-4
-0.683, 1.152e-4
-0.682, 1.145e-4
-0.681, 1.137e-4
-0.680, 1.130e-4
-0.679, 1.122e-4
-0.678, 1.115e-4
-0.677, 1.108e-4
-0.676, 1.101e-4
-0.675, 1.094e-4
-0.674, 1.087e-4
-0.673, 1.081e-4
-0.672, 1.074e-4
-0.671, 1.067e-4
-0.670, 1.061e-4
-0.669, 1.054e-4
-0.668, 1.048e-4
-0.667, 1.042e-4
-0.666, 1.035e-4
-0.665, 1.029e-4
-0.664, 1.023e-4
-0.663, 1.017e-4
-0.662, 1.011e-4
-0.661, 1.005e-4
-0.660, 9.988e-5
-0.659, 9.932e-5
-0.658, 9.874e-5
-0.657, 9.818e-5
-0.656, 9.761e-5
-0.655, 9.705e-5
-0.654, 9.652e-5
-0.653, 9.596e-5
-0.652, 9.544e-5
-0.651, 9.491e-5
-0.650, 9.438e-5
-0.649, 9.386e-5
-0.648, 9.334e-5
-0.647, 9.284e-5
-0.646, 9.234e-5
-0.645, 9.184e-5
-0.644, 9.135e-5
-0.643, 9.085e-5
-0.642, 9.037e-5
-0.641, 8.989e-5
-0.640, 8.940e-5
-0.639, 8.893e-5
-0.638, 8.844e-5
-0.637, 8.797e-5
-0.636, 8.750e-5
-0.635, 8.704e-5
-0.634, 8.658e-5
-0.633, 8.612e-5
-0.632, 8.568e-5
-0.631, 8.524e-5
-0.630, 8.480e-5
-0.629, 8.438e-5
-0.628, 8.395e-5
-0.627, 8.354e-5
-0.626, 8.312e-5
-0.625, 8.270e-5
-0.624, 8.230e-5
-0.623, 8.188e-5
-0.622, 8.148e-5
-0.621, 8.108e-5
-0.620, 8.068e-5
-0.619, 8.029e-5
-0.618, 7.989e-5
-0.617, 7.951e-5
-0.616, 7.913e-5
-0.615, 7.874e-5
-0.614, 7.838e-5
-0.613, 7.799e-5
-0.612, 7.762e-5
-0.611, 7.725e-5
-0.610, 7.688e-5
-0.609, 7.652e-5
-0.608, 7.614e-5
-0.607, 7.579e-5
-0.606, 7.542e-5
-0.605, 7.506e-5
-0.604, 7.471e-5
-0.603, 7.435e-5
-0.602, 7.401e-5
-0.601, 7.367e-5
-0.600, 7.332e-5
-0.599, 7.299e-5
-0.598, 7.264e-5
-0.597, 7.232e-5
-0.596, 7.200e-5
-0.595, 7.167e-5
-0.594, 7.135e-5
-0.593, 7.102e-5
-0.592, 7.070e-5
-0.591, 7.038e-5
-0.590, 7.006e-5
-0.589, 6.975e-5
-0.588, 6.944e-5
-0.587, 6.914e-5
-0.586, 6.883e-5
-0.585, 6.853e-5
-0.584, 6.824e-5
-0.583, 6.794e-5
-0.582, 6.765e-5
-0.581, 6.736e-5
-0.580, 6.706e-5
-0.579, 6.678e-5
-0.578, 6.648e-5
-0.577, 6.620e-5
-0.576, 6.590e-5
-0.575, 6.561e-5
-0.574, 6.533e-5
-0.573, 6.504e-5
-0.572, 6.476e-5
-0.571, 6.448e-5
-0.570, 6.420e-5
-0.569, 6.394e-5
-0.568, 6.365e-5
-0.567, 6.339e-5
-0.566, 6.311e-5
-0.565, 6.285e-5
-0.564, 6.259e-5
-0.563, 6.233e-5
-0.562, 6.207e-5
-0.561, 6.181e-5
-0.560, 6.156e-5
-0.559, 6.131e-5
-0.558, 6.105e-5
-0.557, 6.081e-5
-0.556, 6.056e-5
-0.555, 6.032e-5
-0.554, 6.008e-5
-0.553, 5.983e-5
-0.552, 5.960e-5
-0.551, 5.936e-5
-0.550, 5.912e-5
-0.549, 5.889e-5
-0.548, 5.865e-5
-0.547, 5.842e-5
-0.546, 5.818e-5
-0.545, 5.794e-5
-0.544, 5.771e-5
-0.543, 5.746e-5
-0.542, 5.723e-5
-0.541, 5.700e-5
-0.540, 5.676e-5
-0.539, 5.655e-5
-0.538, 5.631e-5
-0.537, 5.610e-5
-0.536, 5.588e-5
-0.535, 5.565e-5
-0.534, 5.545e-5
-0.533, 5.522e-5
-0.532, 5.501e-5
-0.531, 5.480e-5
-0.530, 5.458e-5
-0.529, 5.438e-5
-0.528, 5.417e-5
-0.527, 5.396e-5
-0.526, 5.376e-5
-0.525, 5.355e-5
-0.524, 5.336e-5
-0.523, 5.315e-5
-0.522, 5.295e-5
-0.521, 5.275e-5
-0.520, 5.255e-5
-0.519, 5.236e-5
-0.518, 5.216e-5
-0.517, 5.197e-5
-0.516, 5.177e-5
-0.515, 5.157e-5
-0.514, 5.138e-5
-0.513, 5.118e-5
-0.512, 5.099e-5
-0.511, 5.080e-5
-0.510, 5.060e-5
-0.509, 5.041e-5
-0.508, 5.021e-5
-0.507, 5.003e-5
-0.506, 4.985e-5
-0.505, 4.965e-5
-0.504, 4.948e-5
-0.503, 4.929e-5
-0.502, 4.912e-5
-0.501, 4.894e-5
-0.500, 4.867e-5
-0.501, 4.842e-5
-0.502, 4.819e-5
-0.503, 4.798e-5
-0.504, 4.778e-5
-0.505, 4.757e-5
-0.506, 4.739e-5
-0.507, 4.718e-5
-0.508, 4.700e-5
-0.509, 4.682e-5
-0.510, 4.662e-5
-0.511, 4.645e-5
-0.512, 4.626e-5
-0.513, 4.609e-5
-0.514, 4.591e-5
-0.515, 4.573e-5
-0.516, 4.556e-5
-0.517, 4.537e-5
-0.518, 4.520e-5
-0.519, 4.502e-5
-0.520, 4.484e-5
-0.521, 4.468e-5
-0.522, 4.450e-5
-0.523, 4.433e-5
-0.524, 4.416e-5
-0.525, 4.399e-5
-0.526, 4.383e-5
-0.527, 4.366e-5
-0.528, 4.350e-5
-0.529, 4.333e-5
-0.530, 4.316e-5
-0.531, 4.302e-5
-0.532, 4.285e-5
-0.533, 4.269e-5
-0.534, 4.253e-5
-0.535, 4.237e-5
-0.536, 4.222e-5
-0.537, 4.206e-5
-0.538, 4.191e-5
-0.539, 4.175e-5
-0.540, 4.160e-5
-0.541, 4.145e-5
-0.542, 4.129e-5
-0.543, 4.115e-5
-0.544, 4.100e-5
-0.545, 4.085e-5
-0.546, 4.071e-5
-0.547, 4.056e-5
-0.548, 4.042e-5
-0.549, 4.027e-5
-0.550, 4.011e-5
-0.551, 3.998e-5
-0.552, 3.982e-5
-0.553, 3.968e-5
-0.554, 3.954e-5
-0.555, 3.939e-5
-0.556, 3.926e-5
-0.557, 3.911e-5
-0.558, 3.897e-5
-0.559, 3.883e-5
-0.560, 3.869e-5
-0.561, 3.856e-5
-0.562, 3.841e-5
-0.563, 3.828e-5
-0.564, 3.814e-5
-0.565, 3.800e-5
-0.566, 3.787e-5
-0.567, 3.772e-5
-0.568, 3.760e-5
-0.569, 3.746e-5
-0.570, 3.732e-5
-0.571, 3.721e-5
-0.572, 3.707e-5
-0.573, 3.695e-5
-0.574, 3.682e-5
-0.575, 3.669e-5
-0.576, 3.656e-5
-0.577, 3.643e-5
-0.578, 3.630e-5
-0.579, 3.618e-5
-0.580, 3.604e-5
-0.581, 3.592e-5
-0.582, 3.579e-5
-0.583, 3.567e-5
-0.584, 3.554e-5
-0.585, 3.541e-5
-0.586, 3.530e-5
-0.587, 3.516e-5
-0.588, 3.504e-5
-0.589, 3.492e-5
-0.590, 3.479e-5
-0.591, 3.468e-5
-0.592, 3.455e-5
-0.593, 3.444e-5
-0.594, 3.432e-5
-0.595, 3.419e-5
-0.596, 3.408e-5
-0.597, 3.395e-5
-0.598, 3.384e-5
-0.599, 3.372e-5
-0.600, 3.359e-5
-0.601, 3.348e-5
-0.602, 3.336e-5
-0.603, 3.325e-5
-0.604, 3.314e-5
-0.605, 3.302e-5
-0.606, 3.292e-5
-0.607, 3.280e-5
-0.608, 3.269e-5
-0.609, 3.258e-5
-0.610, 3.245e-5
-0.611, 3.236e-5
-0.612, 3.223e-5
-0.613, 3.212e-5
-0.614, 3.200e-5
-0.615, 3.189e-5
-0.616, 3.179e-5
-0.617, 3.166e-5
-0.618, 3.156e-5
-0.619, 3.146e-5
-0.620, 3.135e-5
-0.621, 3.125e-5
-0.622, 3.113e-5
-0.623, 3.103e-5
-0.624, 3.093e-5
-0.625, 3.081e-5
-0.626, 3.071e-5
-0.627, 3.060e-5
-0.628, 3.049e-5
-0.629, 3.039e-5
-0.630, 3.027e-5
-0.631, 3.017e-5
-0.632, 3.005e-5
-0.633, 2.996e-5
-0.634, 2.985e-5
-0.635, 2.974e-5
-0.636, 2.965e-5
-0.637, 2.953e-5
-0.638, 2.944e-5
-0.639, 2.934e-5
-0.640, 2.923e-5
-0.641, 2.914e-5
-0.642, 2.903e-5
-0.643, 2.894e-5
-0.644, 2.883e-5
-0.645, 2.873e-5
-0.646, 2.864e-5
-0.647, 2.853e-5
-0.648, 2.843e-5
-0.649, 2.833e-5
-0.650, 2.823e-5
-0.651, 2.813e-5
-0.652, 2.803e-5
-0.653, 2.793e-5
-0.654, 2.783e-5
-0.655, 2.772e-5
-0.656, 2.763e-5
-0.657, 2.752e-5
-0.658, 2.742e-5
-0.659, 2.731e-5
-0.660, 2.720e-5
-0.661, 2.711e-5
-0.662, 2.700e-5
-0.663, 2.690e-5
-0.664, 2.680e-5
-0.665, 2.669e-5
-0.666, 2.660e-5
-0.667, 2.649e-5
-0.668, 2.640e-5
-0.669, 2.630e-5
-0.670, 2.619e-5
-0.671, 2.610e-5
-0.672, 2.599e-5
-0.673, 2.590e-5
-0.674, 2.579e-5
-0.675, 2.568e-5
-0.676, 2.559e-5
-0.677, 2.547e-5
-0.678, 2.537e-5
-0.679, 2.527e-5
-0.680, 2.515e-5
-0.681, 2.506e-5
-0.682, 2.494e-5
-0.683, 2.484e-5
-0.684, 2.473e-5
-0.685, 2.462e-5
-0.686, 2.452e-5
-0.687, 2.440e-5
-0.688, 2.429e-5
-0.689, 2.418e-5
-0.690, 2.406e-5
-0.691, 2.396e-5
-0.692, 2.384e-5
-0.693, 2.372e-5
-0.694, 2.361e-5
-0.695, 2.349e-5
-0.696, 2.337e-5
-0.697, 2.324e-5
-0.698, 2.313e-5
-0.699, 2.300e-5
-0.700, 2.288e-5
-0.701, 2.276e-5
-0.702, 2.263e-5
-0.703, 2.250e-5
-0.704, 2.236e-5
-0.705, 2.222e-5
-0.706, 2.210e-5
-0.707, 2.195e-5
-0.708, 2.182e-5
-0.709, 2.168e-5
-0.710, 2.154e-5
-0.711, 2.140e-5
-0.712, 2.125e-5
-0.713, 2.111e-5
-0.714, 2.096e-5
-0.715, 2.081e-5
-0.716, 2.066e-5
-0.717, 2.048e-5
-0.718, 2.033e-5
-0.719, 2.016e-5
-0.720, 2.000e-5
-0.721, 1.983e-5
-0.722, 1.964e-5
-0.723, 1.947e-5
-0.724, 1.928e-5
-0.725, 1.909e-5
-0.726, 1.890e-5
-0.727, 1.871e-5
-0.728, 1.851e-5
-0.729, 1.830e-5
-0.730, 1.809e-5
-0.731, 1.788e-5
-0.732, 1.767e-5
-0.733, 1.746e-5
-0.734, 1.723e-5
-0.735, 1.701e-5
-0.736, 1.677e-5
-0.737, 1.652e-5
-0.738, 1.629e-5
-0.739, 1.602e-5
-0.740, 1.577e-5
-0.741, 1.549e-5
-0.742, 1.524e-5
-0.743, 1.498e-5
-0.744, 1.466e-5
-0.745, 1.439e-5
-0.746, 1.407e-5
-0.747, 1.376e-5
-0.748, 1.346e-5
-0.749, 1.312e-5
-0.750, 1.279e-5
-0.751, 1.244e-5
-0.752, 1.209e-5
-0.753, 1.174e-5
-0.754, 1.134e-5
-0.755, 1.097e-5
-0.756, 1.058e-5
-0.757, 1.016e-5
-0.758, 9.756e-6
-0.759, 9.319e-6
-0.760, 8.901e-6
-0.761, 8.442e-6
-0.762, 7.982e-6
-0.763, 7.524e-6
-0.764, 7.011e-6
-0.765, 6.536e-6
-0.766, 6.011e-6
-0.767, 5.487e-6
-0.768, 4.895e-6
-0.769, 4.332e-6
-0.770, 3.778e-6
-0.771, 3.188e-6
-0.772, 2.583e-6
-0.773, 1.966e-6
-0.774, 1.319e-6
-0.775, 7.165e-7
-0.776, 5.479e-9
-0.777, -6.614e-7
-0.778, -1.339e-6
-0.779, -2.123e-6
-0.780, -2.819e-6
-0.781, -3.624e-6
-0.782, -4.391e-6
-0.783, -5.191e-6
-0.784, -6.035e-6
-0.785, -6.814e-6
-0.786, -7.734e-6
-0.787, -8.609e-6
-0.788, -9.469e-6
-0.789, -1.046e-5
-0.790, -1.134e-5
-0.791, -1.236e-5
-0.792, -1.338e-5
-0.793, -1.432e-5
-0.794, -1.532e-5
-0.795, -1.639e-5
-0.796, -1.749e-5
-0.797, -1.862e-5
-0.798, -1.974e-5
-0.799, -2.099e-5
-0.800, -2.208e-5
-0.801, -2.332e-5
-0.802, -2.459e-5
-0.803, -2.582e-5
-0.804, -2.718e-5
-0.805, -2.848e-5
-0.806, -2.985e-5
-0.807, -3.123e-5
-0.808, -3.262e-5
-0.809, -3.408e-5
-0.810, -3.546e-5
-0.811, -3.698e-5
-0.812, -3.850e-5
-0.813, -4.000e-5
-0.814, -4.163e-5
-0.815, -4.320e-5
-0.816, -4.484e-5
-0.817, -4.648e-5
-0.818, -4.813e-5
-0.819, -4.965e-5
-0.820, -5.120e-5
-0.821, -5.308e-5
-0.822, -5.489e-5
-0.823, -5.666e-5
-0.824, -5.861e-5
-0.825, -6.043e-5
-0.826, -6.236e-5
-0.827, -6.432e-5
-0.828, -6.619e-5
-0.829, -6.826e-5
-0.830, -7.022e-5
-0.831, -7.236e-5
-0.832, -7.442e-5
-0.833, -7.646e-5
-0.834, -7.871e-5
-0.835, -8.073e-5
-0.836, -8.291e-5
-0.837, -8.517e-5
-0.838, -8.731e-5
-0.839, -8.965e-5
-0.840, -9.193e-5
-0.841, -9.422e-5
-0.842, -9.657e-5
-0.843, -9.883e-5
-0.844, -1.013e-4
-0.845, -1.035e-4
-0.846, -1.059e-4
-0.847, -1.084e-4
-0.848, -1.108e-4
-0.849, -1.133e-4
-0.850, -1.158e-4
-0.851, -1.183e-4
-0.852, -1.209e-4
-0.853, -1.235e-4
-0.854, -1.262e-4
-0.855, -1.287e-4
-0.856, -1.314e-4
-0.857, -1.341e-4
-0.858, -1.367e-4
-0.859, -1.395e-4
-0.860, -1.422e-4
-0.861, -1.449e-4
-0.862, -1.477e-4
-0.863, -1.504e-4
-0.864, -1.532e-4
-0.865, -1.559e-4
-0.866, -1.588e-4
-0.867, -1.616e-4
-0.868, -1.643e-4
-0.869, -1.673e-4
-0.870, -1.702e-4
-0.871, -1.732e-4
-0.872, -1.762e-4
-0.873, -1.790e-4
-0.874, -1.819e-4
-0.875, -1.848e-4
-0.876, -1.878e-4
-0.877, -1.907e-4
-0.878, -1.936e-4
-0.879, -1.967e-4
-0.880, -1.996e-4
-0.881, -2.026e-4
-0.882, -2.056e-4
-0.883, -2.085e-4
-0.884, -2.116e-4
-0.885, -2.146e-4
-0.886, -2.176e-4
-0.887, -2.207e-4
-0.888, -2.236e-4
-0.889, -2.268e-4
-0.890, -2.297e-4
-0.891, -2.328e-4
-0.892, -2.358e-4
-0.893, -2.388e-4
-0.894, -2.419e-4
-0.895, -2.449e-4
-0.896, -2.477e-4
-0.897, -2.508e-4
-0.898, -2.537e-4
-0.899, -2.569e-4
-0.900, -2.598e-4
-0.901, -2.629e-4
-0.902, -2.659e-4
-0.903, -2.688e-4
-0.904, -2.719e-4
-0.905, -2.749e-4
-0.906, -2.778e-4
-0.907, -2.809e-4
-0.908, -2.838e-4
-0.909, -2.869e-4
-0.910, -2.898e-4
-0.911, -2.927e-4
-0.912, -2.957e-4
-0.913, -2.985e-4
-0.914, -3.015e-4
-0.915, -3.043e-4
-0.916, -3.071e-4
-0.917, -3.101e-4
-0.918, -3.128e-4
-0.919, -3.157e-4
-0.920, -3.185e-4
-0.921, -3.213e-4
-0.922, -3.242e-4
-0.923, -3.270e-4
-0.924, -3.298e-4
-0.925, -3.324e-4
-0.926, -3.351e-4
-0.927, -3.378e-4
-0.928, -3.402e-4
-0.929, -3.429e-4
-0.930, -3.454e-4
-0.931, -3.479e-4
-0.932, -3.505e-4
-0.933, -3.530e-4
-0.934, -3.555e-4
-0.935, -3.578e-4
-0.936, -3.603e-4
-0.937, -3.626e-4
-0.938, -3.649e-4
-0.939, -3.673e-4
-0.940, -3.694e-4
-0.941, -3.716e-4
-0.942, -3.738e-4
-0.943, -3.758e-4
-0.944, -3.780e-4
-0.945, -3.799e-4
-0.946, -3.819e-4
-0.947, -3.837e-4
-0.948, -3.854e-4
-0.949, -3.874e-4
-0.950, -3.891e-4
-0.951, -3.909e-4
-0.952, -3.926e-4
-0.953, -3.942e-4
-0.954, -3.959e-4
-0.955, -3.973e-4
-0.956, -3.988e-4
-0.957, -4.003e-4
-0.958, -4.016e-4
-0.959, -4.030e-4
-0.960, -4.041e-4
-0.961, -4.052e-4
-0.962, -4.064e-4
-0.963, -4.073e-4
-0.964, -4.084e-4
-0.965, -4.092e-4
-0.966, -4.100e-4
-0.967, -4.108e-4
-0.968, -4.114e-4
-0.969, -4.121e-4
-0.970, -4.125e-4
-0.971, -4.130e-4
-0.972, -4.134e-4
-0.973, -4.138e-4
-0.974, -4.140e-4
-0.975, -4.141e-4
-0.976, -4.141e-4
-0.977, -4.141e-4
-0.978, -4.139e-4
-0.979, -4.138e-4
-0.980, -4.134e-4
-0.981, -4.131e-4
-0.982, -4.126e-4
-0.983, -4.120e-4
-0.984, -4.115e-4
-0.985, -4.107e-4
-0.986, -4.099e-4
-0.987, -4.091e-4
-0.988, -4.080e-4
-0.989, -4.071e-4
-0.990, -4.059e-4
-0.991, -4.047e-4
-0.992, -4.034e-4
-0.993, -4.019e-4
-0.994, -4.006e-4
-0.995, -3.990e-4
-0.996, -3.975e-4
-0.997, -3.959e-4
-0.998, -3.941e-4
-0.999, -3.923e-4
-1.000, -3.905e-4
-1.001, -3.886e-4
-1.002, -3.868e-4
-1.003, -3.848e-4
-1.004, -3.828e-4
-1.005, -3.807e-4
-1.006, -3.787e-4
-1.007, -3.766e-4
-1.008, -3.744e-4
-1.009, -3.723e-4
-1.010, -3.701e-4
-1.011, -3.679e-4
-1.012, -3.657e-4
-1.013, -3.635e-4
-1.014, -3.613e-4
-1.015, -3.590e-4
-1.016, -3.568e-4
-1.017, -3.546e-4
-1.018, -3.524e-4
-1.019, -3.502e-4
-1.020, -3.480e-4
-1.021, -3.458e-4
-1.022, -3.437e-4
-1.023, -3.415e-4
-1.024, -3.395e-4
-1.025, -3.373e-4
-1.026, -3.353e-4
-1.027, -3.332e-4
-1.028, -3.311e-4
-1.029, -3.291e-4
-1.030, -3.270e-4
-1.031, -3.250e-4
-1.032, -3.231e-4
-1.033, -3.211e-4
-1.034, -3.192e-4
-1.035, -3.173e-4
-1.036, -3.155e-4
-1.037, -3.137e-4
-1.038, -3.119e-4
-1.039, -3.101e-4
-1.040, -3.084e-4
-1.041, -3.066e-4
-1.042, -3.049e-4
-1.043, -3.033e-4
-1.044, -3.016e-4
-1.045, -3.000e-4
-1.046, -2.984e-4
-1.047, -2.968e-4
-1.048, -2.953e-4
-1.049, -2.938e-4
-1.050, -2.922e-4
-1.051, -2.908e-4
-1.052, -2.893e-4
-1.053, -2.879e-4
-1.054, -2.865e-4
-1.055, -2.851e-4
-1.056, -2.837e-4
-1.057, -2.824e-4
-1.058, -2.811e-4
-1.059, -2.797e-4
-1.060, -2.784e-4
-1.061, -2.772e-4
-1.062, -2.759e-4
-1.063, -2.747e-4
-1.064, -2.735e-4
-1.065, -2.723e-4
-1.066, -2.711e-4
-1.067, -2.699e-4
-1.068, -2.687e-4
-1.069, -2.676e-4
-1.070, -2.665e-4
-1.071, -2.654e-4
-1.072, -2.643e-4
-1.073, -2.632e-4
-1.074, -2.622e-4
-1.075, -2.611e-4
-1.076, -2.601e-4
-1.077, -2.591e-4
-1.078, -2.581e-4
-1.079, -2.571e-4
-1.080, -2.561e-4
-1.081, -2.551e-4
-1.082, -2.542e-4
-1.083, -2.533e-4
-1.084, -2.523e-4
-1.085, -2.514e-4
-1.086, -2.505e-4
-1.087, -2.496e-4
-1.088, -2.488e-4
-1.089, -2.479e-4
-1.090, -2.470e-4
-1.091, -2.462e-4
-1.092, -2.453e-4
-1.093, -2.445e-4
-1.094, -2.437e-4
-1.095, -2.428e-4
-1.096, -2.420e-4
-1.097, -2.412e-4
-1.098, -2.404e-4
-1.099, -2.397e-4
-1.100, -2.389e-4
-1.101, -2.381e-4
-1.102, -2.374e-4
-1.103, -2.366e-4
-1.104, -2.359e-4
-1.105, -2.352e-4
-1.106, -2.345e-4
-1.107, -2.338e-4
-1.108, -2.331e-4
-1.109, -2.324e-4
-1.110, -2.317e-4
-1.111, -2.310e-4
-1.112, -2.304e-4
-1.113, -2.297e-4
-1.114, -2.291e-4
-1.115, -2.284e-4
-1.116, -2.278e-4
-1.117, -2.271e-4
-1.118, -2.265e-4
-1.119, -2.259e-4
-1.120, -2.252e-4
-1.121, -2.246e-4
-1.122, -2.240e-4
-1.123, -2.234e-4
-1.124, -2.228e-4
-1.125, -2.222e-4
-1.126, -2.217e-4
-1.127, -2.211e-4
-1.128, -2.205e-4
-1.129, -2.200e-4
-1.130, -2.194e-4
-1.131, -2.189e-4
-1.132, -2.183e-4
-1.133, -2.178e-4
-1.134, -2.172e-4
-1.135, -2.167e-4
-1.136, -2.162e-4
-1.137, -2.157e-4
-1.138, -2.151e-4
-1.139, -2.146e-4
-1.140, -2.141e-4
-1.141, -2.136e-4
-1.142, -2.131e-4
-1.143, -2.126e-4
-1.144, -2.121e-4
-1.145, -2.116e-4
-1.146, -2.111e-4
-1.147, -2.107e-4
-1.148, -2.102e-4
-1.149, -2.097e-4
-1.150, -2.093e-4
-1.151, -2.088e-4
-1.152, -2.084e-4
-1.153, -2.079e-4
-1.154, -2.075e-4
-1.155, -2.071e-4
-1.156, -2.066e-4
-1.157, -2.062e-4
-1.158, -2.057e-4
-1.159, -2.053e-4
-1.160, -2.049e-4
-1.161, -2.045e-4
-1.162, -2.041e-4
-1.163, -2.036e-4
-1.164, -2.032e-4
-1.165, -2.028e-4
-1.166, -2.024e-4
-1.167, -2.020e-4
-1.168, -2.016e-4
-1.169, -2.012e-4
-1.170, -2.008e-4
-1.171, -2.004e-4
-1.172, -2.001e-4
-1.173, -1.997e-4
-1.174, -1.993e-4
-1.175, -1.989e-4
-1.176, -1.985e-4
-1.177, -1.982e-4
-1.178, -1.978e-4
-1.179, -1.975e-4
-1.180, -1.971e-4
-1.181, -1.968e-4
-1.182, -1.964e-4
-1.183, -1.961e-4
-1.184, -1.957e-4
-1.185, -1.954e-4
-1.186, -1.950e-4
-1.187, -1.947e-4
-1.188, -1.944e-4
-1.189, -1.940e-4
-1.190, -1.937e-4
-1.191, -1.934e-4
-1.192, -1.930e-4
-1.193, -1.927e-4
-1.194, -1.924e-4
-1.195, -1.921e-4
-1.196, -1.918e-4
-1.197, -1.915e-4
-1.198, -1.912e-4
-1.199, -1.908e-4
-1.200, -1.904e-4
-1.199, -1.898e-4
-1.198, -1.894e-4
-1.197, -1.890e-4
-1.196, -1.886e-4
-1.195, -1.882e-4
-1.194, -1.879e-4
-1.193, -1.875e-4
-1.192, -1.872e-4
-1.191, -1.868e-4
-1.190, -1.865e-4
-1.189, -1.862e-4
-1.188, -1.859e-4
-1.187, -1.855e-4
-1.186, -1.852e-4
-1.185, -1.849e-4
-1.184, -1.846e-4
-1.183, -1.843e-4
-1.182, -1.840e-4
-1.181, -1.837e-4
-1.180, -1.834e-4
-1.179, -1.832e-4
-1.178, -1.829e-4
-1.177, -1.826e-4
-1.176, -1.824e-4
-1.175, -1.821e-4
-1.174, -1.818e-4
-1.173, -1.816e-4
-1.172, -1.813e-4
-1.171, -1.810e-4
-1.170, -1.808e-4
-1.169, -1.805e-4
-1.168, -1.803e-4
-1.167, -1.800e-4
-1.166, -1.797e-4
-1.165, -1.795e-4
-1.164, -1.792e-4
-1.163, -1.790e-4
-1.162, -1.787e-4
-1.161, -1.784e-4
-1.160, -1.782e-4
-1.159, -1.780e-4
-1.158, -1.777e-4
-1.157, -1.775e-4
-1.156, -1.773e-4
-1.155, -1.770e-4
-1.154, -1.768e-4
-1.153, -1.766e-4
-1.152, -1.763e-4
-1.151, -1.761e-4
-1.150, -1.759e-4
-1.149, -1.756e-4
-1.148, -1.754e-4
-1.147, -1.752e-4
-1.146, -1.750e-4
-1.145, -1.748e-4
-1.144, -1.745e-4
-1.143, -1.743e-4
-1.142, -1.741e-4
-1.141, -1.739e-4
-1.140, -1.737e-4
-1.139, -1.735e-4
-1.138, -1.733e-4
-1.137, -1.730e-4
-1.136, -1.728e-4
-1.135, -1.726e-4
-1.134, -1.724e-4
-1.133, -1.722e-4
-1.132, -1.720e-4
-1.131, -1.718e-4
-1.130, -1.716e-4
-1.129, -1.714e-4
-1.128, -1.712e-4
-1.127, -1.710e-4
-1.126, -1.708e-4
-1.125, -1.706e-4
-1.124, -1.703e-4
-1.123, -1.701e-4
-1.122, -1.699e-4
-1.121, -1.697e-4
-1.120, -1.695e-4
-1.119, -1.693e-4
-1.118, -1.691e-4
-1.117, -1.689e-4
-1.116, -1.687e-4
-1.115, -1.685e-4
-1.114, -1.683e-4
-1.113, -1.682e-4
-1.112, -1.680e-4
-1.111, -1.678e-4
-1.110, -1.676e-4
-1.109, -1.674e-4
-1.108, -1.672e-4
-1.107, -1.670e-4
-1.106, -1.669e-4
-1.105, -1.667e-4
-1.104, -1.665e-4
-1.103, -1.663e-4
-1.102, -1.661e-4
-1.101, -1.659e-4
-1.100, -1.657e-4
-1.099, -1.655e-4
-1.098, -1.653e-4
-1.097, -1.651e-4
-1.096, -1.649e-4
-1.095, -1.647e-4
-1.094, -1.645e-4
-1.093, -1.644e-4
-1.092, -1.642e-4
-1.091, -1.640e-4
-1.090, -1.638e-4
-1.089, -1.636e-4
-1.088, -1.634e-4
-1.087, -1.632e-4
-1.086, -1.630e-4
-1.085, -1.628e-4
-1.084, -1.627e-4
-1.083, -1.625e-4
-1.082, -1.623e-4
-1.081, -1.621e-4
-1.080, -1.619e-4
-1.079, -1.617e-4
-1.078, -1.615e-4
-1.077, -1.613e-4
-1.076, -1.612e-4
-1.075, -1.609e-4
-1.074, -1.607e-4
-1.073, -1.606e-4
-1.072, -1.604e-4
-1.071, -1.601e-4
-1.070, -1.600e-4
-1.069, -1.598e-4
-1.068, -1.596e-4
-1.067, -1.593e-4
-1.066, -1.592e-4
-1.065, -1.589e-4
-1.064, -1.587e-4
-1.063, -1.585e-4
-1.062, -1.583e-4
-1.061, -1.581e-4
-1.060, -1.579e-4
-1.059, -1.577e-4
-1.058, -1.574e-4
-1.057, -1.572e-4
-1.056, -1.570e-4
-1.055, -1.568e-4
-1.054, -1.565e-4
-1.053, -1.563e-4
-1.052, -1.561e-4
-1.051, -1.559e-4
-1.050, -1.557e-4
-1.049, -1.554e-4
-1.048, -1.552e-4
-1.047, -1.550e-4
-1.046, -1.547e-4
-1.045, -1.545e-4
-1.044, -1.542e-4
-1.043, -1.540e-4
-1.042, -1.537e-4
-1.041, -1.534e-4
-1.040, -1.532e-4
-1.039, -1.529e-4
-1.038, -1.526e-4
-1.037, -1.523e-4
-1.036, -1.520e-4
-1.035, -1.517e-4
-1.034, -1.514e-4
-1.033, -1.511e-4
-1.032, -1.508e-4
-1.031, -1.505e-4
-1.030, -1.502e-4
-1.029, -1.499e-4
-1.028, -1.495e-4
-1.027, -1.492e-4
-1.026, -1.488e-4
-1.025, -1.485e-4
-1.024, -1.481e-4
-1.023, -1.477e-4
-1.022, -1.473e-4
-1.021, -1.470e-4
-1.020, -1.466e-4
-1.019, -1.462e-4
-1.018, -1.458e-4
-1.017, -1.454e-4
-1.016, -1.450e-4
-1.015, -1.446e-4
-1.014, -1.441e-4
-1.013, -1.437e-4
-1.012, -1.432e-4
-1.011, -1.427e-4
-1.010, -1.422e-4
-1.009, -1.417e-4
-1.008, -1.412e-4
-1.007, -1.406e-4
-1.006, -1.401e-4
-1.005, -1.396e-4
-1.004, -1.390e-4
-1.003, -1.384e-4
-1.002, -1.378e-4
-1.001, -1.373e-4
-1.000, -1.366e-4
-0.999, -1.360e-4
-0.998, -1.354e-4
-0.997, -1.347e-4
-0.996, -1.340e-4
-0.995, -1.333e-4
-0.994, -1.326e-4
-0.993, -1.319e-4
-0.992, -1.311e-4
-0.991, -1.304e-4
-0.990, -1.296e-4
-0.989, -1.287e-4
-0.988, -1.280e-4
-0.987, -1.270e-4
-0.986, -1.262e-4
-0.985, -1.253e-4
-0.984, -1.244e-4
-0.983, -1.235e-4
-0.982, -1.226e-4
-0.981, -1.216e-4
-0.980, -1.206e-4
-0.979, -1.196e-4
-0.978, -1.186e-4
-0.977, -1.175e-4
-0.976, -1.165e-4
-0.975, -1.154e-4
-0.974, -1.142e-4
-0.973, -1.131e-4
-0.972, -1.118e-4
-0.971, -1.107e-4
-0.970, -1.095e-4
-0.969, -1.082e-4
-0.968, -1.069e-4
-0.967, -1.056e-4
-0.966, -1.044e-4
-0.965, -1.029e-4
-0.964, -1.016e-4
-0.963, -1.002e-4
-0.962, -9.869e-5
-0.961, -9.730e-5
-0.960, -9.575e-5
-0.959, -9.427e-5
-0.958, -9.278e-5
-0.957, -9.118e-5
-0.956, -8.969e-5
-0.955, -8.803e-5
-0.954, -8.638e-5
-0.953, -8.479e-5
-0.952, -8.306e-5
-0.951, -8.145e-5
-0.950, -7.967e-5
-0.949, -7.784e-5
-0.948, -7.609e-5
-0.947, -7.436e-5
-0.946, -7.257e-5
-0.945, -7.060e-5
-0.944, -6.872e-5
-0.943, -6.683e-5
-0.942, -6.473e-5
-0.941, -6.286e-5
-0.940, -6.088e-5
-0.939, -5.878e-5
-0.938, -5.678e-5
-0.937, -5.465e-5
-0.936, -5.257e-5
-0.935, -5.037e-5
-0.934, -4.816e-5
-0.933, -4.607e-5
-0.932, -4.375e-5
-0.931, -4.163e-5
-0.930, -3.937e-5
-0.929, -3.704e-5
-0.928, -3.476e-5
-0.927, -3.239e-5
-0.926, -3.009e-5
-0.925, -2.766e-5
-0.924, -2.525e-5
-0.923, -2.286e-5
-0.922, -2.031e-5
-0.921, -1.784e-5
-0.920, -1.528e-5
-0.919, -1.282e-5
-0.918, -1.036e-5
-0.917, -7.756e-6
-0.916, -5.224e-6
-0.915, -2.605e-6
-0.914, -4.362e-8
-0.913, 2.523e-6
-0.912, 5.273e-6
-0.911, 7.786e-6
-0.910, 1.056e-5
-0.909, 1.330e-5
-0.908, 1.590e-5
-0.907, 1.878e-5
-0.906, 2.138e-5
-0.905, 2.416e-5
-0.904, 2.702e-5
-0.903, 2.972e-5
-0.902, 3.256e-5
-0.901, 3.530e-5
-0.900, 3.814e-5
-0.899, 4.100e-5
-0.898, 4.378e-5
-0.897, 4.671e-5
-0.896, 4.935e-5
-0.895, 5.220e-5
-0.894, 5.518e-5
-0.893, 5.796e-5
-0.892, 6.100e-5
-0.891, 6.386e-5
-0.890, 6.679e-5
-0.889, 6.968e-5
-0.888, 7.255e-5
-0.887, 7.559e-5
-0.886, 7.841e-5
-0.885, 8.139e-5
-0.884, 8.438e-5
-0.883, 8.729e-5
-0.882, 9.035e-5
-0.881, 9.325e-5
-0.880, 9.622e-5
-0.879, 9.912e-5
-0.878, 1.020e-4
-0.877, 1.051e-4
-0.876, 1.079e-4
-0.875, 1.110e-4
-0.874, 1.139e-4
-0.873, 1.168e-4
-0.872, 1.199e-4
-0.871, 1.228e-4
-0.870, 1.260e-4
-0.869, 1.289e-4
-0.868, 1.318e-4
-0.867, 1.348e-4
-0.866, 1.376e-4
-0.865, 1.406e-4
-0.864, 1.435e-4
-0.863, 1.463e-4
-0.862, 1.493e-4
-0.861, 1.521e-4
-0.860, 1.549e-4
-0.859, 1.578e-4
-0.858, 1.606e-4
-0.857, 1.635e-4
-0.856, 1.662e-4
-0.855, 1.690e-4
-0.854, 1.718e-4
-0.853, 1.744e-4
-0.852, 1.773e-4
-0.851, 1.799e-4
-0.850, 1.826e-4
-0.849, 1.853e-4
-0.848, 1.879e-4
-0.847, 1.906e-4
-0.846, 1.932e-4
-0.845, 1.957e-4
-0.844, 1.981e-4
-0.843, 2.006e-4
-0.842, 2.033e-4
-0.841, 2.056e-4
-0.840, 2.081e-4
-0.839, 2.106e-4
-0.838, 2.129e-4
-0.837, 2.153e-4
-0.836, 2.176e-4
-0.835, 2.199e-4
-0.834, 2.221e-4
-0.833, 2.243e-4
-0.832, 2.266e-4
-0.831, 2.287e-4
-0.830, 2.308e-4
-0.829, 2.328e-4
-0.828, 2.348e-4
-0.827, 2.369e-4
-0.826, 2.386e-4
-0.825, 2.405e-4
-0.824, 2.425e-4
-0.823, 2.441e-4
-0.822, 2.460e-4
-0.821, 2.476e-4
-0.820, 2.493e-4
-0.819, 2.504e-4
-0.818, 2.519e-4
-0.817, 2.535e-4
-0.816, 2.549e-4
-0.815, 2.562e-4
-0.814, 2.576e-4
-0.813, 2.587e-4
-0.812, 2.600e-4
-0.811, 2.610e-4
-0.810, 2.621e-4
-0.809, 2.631e-4
-0.808, 2.640e-4
-0.807, 2.649e-4
-0.806, 2.657e-4
-0.805, 2.664e-4
-0.804, 2.670e-4
-0.803, 2.676e-4
-0.802, 2.681e-4
-0.801, 2.685e-4
-0.800, 2.688e-4
-0.799, 2.691e-4
-0.798, 2.692e-4
-0.797, 2.694e-4
-0.796, 2.694e-4
-0.795, 2.694e-4
-0.794, 2.692e-4
-0.793, 2.688e-4
-0.792, 2.687e-4
-0.791, 2.682e-4
-0.790, 2.678e-4
-0.789, 2.673e-4
-0.788, 2.667e-4
-0.787, 2.660e-4
-0.786, 2.652e-4
-0.785, 2.644e-4
-0.784, 2.634e-4
-0.783, 2.624e-4
-0.782, 2.614e-4
-0.781, 2.602e-4
-0.780, 2.590e-4
-0.779, 2.578e-4
-0.778, 2.564e-4
-0.777, 2.551e-4
-0.776, 2.535e-4
-0.775, 2.520e-4
-0.774, 2.504e-4
-0.773, 2.488e-4
-0.772, 2.472e-4
-0.771, 2.454e-4
-0.770, 2.437e-4
-0.769, 2.419e-4
-0.768, 2.401e-4
-0.767, 2.382e-4
-0.766, 2.363e-4
-0.765, 2.343e-4
-0.764, 2.324e-4
-0.763, 2.303e-4
-0.762, 2.284e-4
-0.761, 2.263e-4
-0.760, 2.243e-4
-0.759, 2.223e-4
-0.758, 2.202e-4
-0.757, 2.183e-4
-0.756, 2.162e-4
-0.755, 2.142e-4
-0.754, 2.122e-4
-0.753, 2.102e-4
-0.752, 2.082e-4
-0.751, 2.062e-4
-0.750, 2.043e-4
-0.749, 2.023e-4
-0.748, 2.003e-4
-0.747, 1.985e-4
-0.746, 1.965e-4
-0.745, 1.947e-4
-0.744, 1.929e-4
-0.743, 1.910e-4
-0.742, 1.891e-4
-0.741, 1.874e-4
-0.740, 1.856e-4
-0.739, 1.839e-4
-0.738, 1.822e-4
-0.737, 1.805e-4
-0.736, 1.788e-4
-0.735, 1.772e-4
-0.734, 1.756e-4
-0.733, 1.739e-4
-0.732, 1.724e-4
-0.731, 1.708e-4
-0.730, 1.693e-4
-0.729, 1.678e-4
-0.728, 1.663e-4
-0.727, 1.649e-4
-0.726, 1.634e-4
-0.725, 1.620e-4
-0.724, 1.606e-4
-0.723, 1.592e-4
-0.722, 1.579e-4
-0.721, 1.565e-4
-0.720, 1.552e-4
-0.719, 1.539e-4
-0.718, 1.526e-4
-0.717, 1.514e-4
-0.716, 1.501e-4
-0.715, 1.489e-4
-0.714, 1.477e-4
-0.713, 1.465e-4
-0.712, 1.454e-4
-0.711, 1.442e-4
-0.710, 1.431e-4
-0.709, 1.420e-4
-0.708, 1.409e-4
-0.707, 1.398e-4
-0.706, 1.387e-4
-0.705, 1.377e-4
-0.704, 1.366e-4
-0.703, 1.356e-4
-0.702, 1.346e-4
-0.701, 1.336e-4
-0.700, 1.326e-4
-0.699, 1.317e-4
-0.698, 1.307e-4
-0.697, 1.298e-4
-0.696, 1.288e-4
-0.695, 1.279e-4
-0.694, 1.270e-4
-0.693, 1.261e-4
-0.692, 1.252e-4
-0.691, 1.244e-4
-0.690, 1.235e-4
-0.689, 1.227e-4
-0.688, 1.218e-4
-0.687, 1.210e-4
-0.686, 1.202e-4
-0.685, 1.194e-4
-0.684, 1.186e-4
-0.683, 1.178e-4
-0.682, 1.170e-4
-0.681, 1.163e-4
-0.680, 1.155e-4
-0.679, 1.148e-4
-0.678, 1.140e-4
-0.677, 1.133e-4
-0.676, 1.126e-4
-0.675, 1.119e-4
-0.674, 1.112e-4
-0.673, 1.105e-4
-0.672, 1.098e-4
-0.671, 1.091e-4
-0.670, 1.084e-4
-0.669, 1.078e-4
-0.668, 1.071e-4
-0.667, 1.065e-4
-0.666, 1.059e-4
-0.665, 1.052e-4
-0.664, 1.046e-4
-0.663, 1.040e-4
-0.662, 1.034e-4
-0.661, 1.028e-4
-0.660, 1.022e-4
-0.659, 1.016e-4
-0.658, 1.010e-4
-0.657, 1.004e-4
-0.656, 9.982e-5
-0.655, 9.924e-5
-0.654, 9.868e-5
-0.653, 9.812e-5
-0.652, 9.757e-5
-0.651, 9.703e-5
-0.650, 9.648e-5
-0.649, 9.596e-5
-0.648, 9.544e-5
-0.647, 9.491e-5
-0.646, 9.441e-5
-0.645, 9.389e-5
-0.644, 9.338e-5
-0.643, 9.288e-5
-0.642, 9.238e-5
-0.641, 9.189e-5
-0.640, 9.140e-5
-0.639, 9.092e-5
-0.638, 9.044e-5
-0.637, 8.997e-5
-0.636, 8.951e-5
-0.635, 8.904e-5
-0.634, 8.859e-5
-0.633, 8.813e-5
-0.632, 8.768e-5
-0.631, 8.724e-5
-0.630, 8.678e-5
-0.629, 8.635e-5
-0.628, 8.591e-5
-0.627, 8.547e-5
-0.626, 8.504e-5
-0.625, 8.461e-5
-0.624, 8.419e-5
-0.623, 8.377e-5
-0.622, 8.335e-5
-0.621, 8.295e-5
-0.620, 8.254e-5
-0.619, 8.215e-5
-0.618, 8.174e-5
-0.617, 8.134e-5
-0.616, 8.096e-5
-0.615, 8.056e-5
-0.614, 8.018e-5
-0.613, 7.980e-5
-0.612, 7.941e-5
-0.611, 7.904e-5
-0.610, 7.865e-5
-0.609, 7.828e-5
-0.608, 7.791e-5
-0.607, 7.754e-5
-0.606, 7.719e-5
-0.605, 7.682e-5
-0.604, 7.648e-5
-0.603, 7.613e-5
-0.602, 7.578e-5
-0.601, 7.544e-5
-0.600, 7.509e-5
-0.599, 7.475e-5
-0.598, 7.442e-5
-0.597, 7.407e-5
-0.596, 7.375e-5
-0.595, 7.340e-5
-0.594, 7.308e-5
-0.593, 7.274e-5
-0.592, 7.241e-5
-0.591, 7.210e-5
-0.590, 7.176e-5
-0.589, 7.144e-5
-0.588, 7.113e-5
-0.587, 7.081e-5
-0.586, 7.050e-5
-0.585, 7.018e-5
-0.584, 6.988e-5
-0.583, 6.957e-5
-0.582, 6.927e-5
-0.581, 6.897e-5
-0.580, 6.866e-5
-0.579, 6.837e-5
-0.578, 6.809e-5
-0.577, 6.779e-5
-0.576, 6.751e-5
-0.575, 6.722e-5
-0.574, 6.694e-5
-0.573, 6.666e-5
-0.572, 6.637e-5
-0.571, 6.611e-5
-0.570, 6.582e-5
-0.569, 6.555e-5
-0.568, 6.528e-5
-0.567, 6.500e-5
-0.566, 6.473e-5
-0.565, 6.445e-5
-0.564, 6.419e-5
-0.563, 6.392e-5
-0.562, 6.365e-5
-0.561, 6.339e-5
-0.560, 6.312e-5
-0.559, 6.286e-5
-0.558, 6.261e-5
-0.557, 6.235e-5
-0.556, 6.211e-5
-0.555, 6.185e-5
-0.554, 6.160e-5
-0.553, 6.136e-5
-0.552, 6.110e-5
-0.551, 6.087e-5
-0.550, 6.061e-5
-0.549, 6.038e-5
-0.548, 6.013e-5
-0.547, 5.989e-5
-0.546, 5.966e-5
-0.545, 5.941e-5
-0.544, 5.918e-5
-0.543, 5.895e-5
-0.542, 5.871e-5
-0.541, 5.849e-5
-0.540, 5.825e-5
-0.539, 5.804e-5
-0.538, 5.781e-5
-0.537, 5.758e-5
-0.536, 5.737e-5
-0.535, 5.713e-5
-0.534, 5.692e-5
-0.533, 5.670e-5
-0.532, 5.648e-5
-0.531, 5.628e-5
-0.530, 5.605e-5
-0.529, 5.585e-5
-0.528, 5.563e-5
-0.527, 5.542e-5
-0.526, 5.522e-5
-0.525, 5.500e-5
-0.524, 5.480e-5
-0.523, 5.459e-5
-0.522, 5.438e-5
-0.521, 5.418e-5
-0.520, 5.396e-5
-0.519, 5.376e-5
-0.518, 5.355e-5
-0.517, 5.334e-5
-0.516, 5.315e-5
-0.515, 5.294e-5
-0.514, 5.275e-5
-0.513, 5.255e-5
-0.512, 5.236e-5
-0.511, 5.218e-5
-0.510, 5.198e-5
-0.509, 5.180e-5
-0.508, 5.161e-5
-0.507, 5.142e-5
-0.506, 5.125e-5
-0.505, 5.105e-5
-0.504, 5.088e-5
-0.503, 5.069e-5
-0.502, 5.050e-5
-0.501, 5.033e-5
-0.500, 5.005e-5
-0.501, 4.979e-5
-0.502, 4.956e-5
-0.503, 4.934e-5
-0.504, 4.914e-5
-0.505, 4.893e-5
-0.506, 4.874e-5
-0.507, 4.854e-5
-0.508, 4.834e-5
-0.509, 4.816e-5
-0.510, 4.796e-5
-0.511, 4.777e-5
-0.512, 4.758e-5
-0.513, 4.739e-5
-0.514, 4.721e-5
-0.515, 4.702e-5
-0.516, 4.684e-5
-0.517, 4.666e-5
-0.518, 4.647e-5
-0.519, 4.630e-5
-0.520, 4.612e-5
-0.521, 4.596e-5
-0.522, 4.579e-5
-0.523, 4.561e-5
-0.524, 4.545e-5
-0.525, 4.528e-5
-0.526, 4.511e-5
-0.527, 4.495e-5
-0.528, 4.478e-5
-0.529, 4.462e-5
-0.530, 4.445e-5
-0.531, 4.429e-5
-0.532, 4.413e-5
-0.533, 4.396e-5
-0.534, 4.381e-5
-0.535, 4.364e-5
-0.536, 4.348e-5
-0.537, 4.333e-5
-0.538, 4.316e-5
-0.539, 4.302e-5
-0.540, 4.285e-5
-0.541, 4.270e-5
-0.542, 4.255e-5
-0.543, 4.238e-5
-0.544, 4.224e-5
-0.545, 4.208e-5
-0.546, 4.193e-5
-0.547, 4.177e-5
-0.548, 4.162e-5
-0.549, 4.147e-5
-0.550, 4.131e-5
-0.551, 4.118e-5
-0.552, 4.103e-5
-0.553, 4.088e-5
-0.554, 4.075e-5
-0.555, 4.060e-5
-0.556, 4.046e-5
-0.557, 4.032e-5
-0.558, 4.017e-5
-0.559, 4.004e-5
-0.560, 3.989e-5
-0.561, 3.975e-5
-0.562, 3.961e-5
-0.563, 3.946e-5
-0.564, 3.934e-5
-0.565, 3.919e-5
-0.566, 3.906e-5
-0.567, 3.893e-5
-0.568, 3.878e-5
-0.569, 3.866e-5
-0.570, 3.852e-5
-0.571, 3.839e-5
-0.572, 3.826e-5
-0.573, 3.811e-5
-0.574, 3.799e-5
-0.575, 3.784e-5
-0.576, 3.771e-5
-0.577, 3.758e-5
-0.578, 3.744e-5
-0.579, 3.732e-5
-0.580, 3.717e-5
-0.581, 3.705e-5
-0.582, 3.693e-5
-0.583, 3.680e-5
-0.584, 3.668e-5
-0.585, 3.655e-5
-0.586, 3.643e-5
-0.587, 3.631e-5
-0.588, 3.618e-5
-0.589, 3.607e-5
-0.590, 3.593e-5
-0.591, 3.581e-5
-0.592, 3.569e-5
-0.593, 3.556e-5
-0.594, 3.544e-5
-0.595, 3.532e-5
-0.596, 3.520e-5
-0.597, 3.508e-5
-0.598, 3.495e-5
-0.599, 3.484e-5
-0.600, 3.471e-5
-0.601, 3.460e-5
-0.602, 3.448e-5
-0.603, 3.436e-5
-0.604, 3.426e-5
-0.605, 3.413e-5
-0.606, 3.401e-5
-0.607, 3.389e-5
-0.608, 3.377e-5
-0.609, 3.366e-5
-0.610, 3.353e-5
-0.611, 3.342e-5
-0.612, 3.331e-5
-0.613, 3.318e-5
-0.614, 3.308e-5
-0.615, 3.296e-5
-0.616, 3.285e-5
-0.617, 3.274e-5
-0.618, 3.263e-5
-0.619, 3.253e-5
-0.620, 3.241e-5
-0.621, 3.231e-5
-0.622, 3.220e-5
-0.623, 3.208e-5
-0.624, 3.198e-5
-0.625, 3.187e-5
-0.626, 3.176e-5
-0.627, 3.165e-5
-0.628, 3.154e-5
-0.629, 3.144e-5
-0.630, 3.133e-5
-0.631, 3.122e-5
-0.632, 3.112e-5
-0.633, 3.100e-5
-0.634, 3.091e-5
-0.635, 3.079e-5
-0.636, 3.069e-5
-0.637, 3.059e-5
-0.638, 3.047e-5
-0.639, 3.038e-5
-0.640, 3.026e-5
-0.641, 3.016e-5
-0.642, 3.005e-5
-0.643, 2.994e-5
-0.644, 2.985e-5
-0.645, 2.974e-5
-0.646, 2.964e-5
-0.647, 2.954e-5
-0.648, 2.943e-5
-0.649, 2.934e-5
-0.650, 2.923e-5
-0.651, 2.913e-5
-0.652, 2.903e-5
-0.653, 2.892e-5
-0.654, 2.883e-5
-0.655, 2.871e-5
-0.656, 2.861e-5
-0.657, 2.851e-5
-0.658, 2.840e-5
-0.659, 2.831e-5
-0.660, 2.820e-5
-0.661, 2.809e-5
-0.662, 2.800e-5
-0.663, 2.789e-5
-0.664, 2.780e-5
-0.665, 2.769e-5
-0.666, 2.759e-5
-0.667, 2.749e-5
-0.668, 2.738e-5
-0.669, 2.728e-5
-0.670, 2.717e-5
-0.671, 2.707e-5
-0.672, 2.696e-5
-0.673, 2.685e-5
-0.674, 2.675e-5
-0.675, 2.663e-5
-0.676, 2.653e-5
-0.677, 2.642e-5
-0.678, 2.631e-5
-0.679, 2.621e-5
-0.680, 2.609e-5
-0.681, 2.599e-5
-0.682, 2.588e-5
-0.683, 2.576e-5
-0.684, 2.566e-5
-0.685, 2.554e-5
-0.686, 2.543e-5
-0.687, 2.532e-5
-0.688, 2.520e-5
-0.689, 2.510e-5
-0.690, 2.497e-5
-0.691, 2.487e-5
-0.692, 2.475e-5
-0.693, 2.463e-5
-0.694, 2.452e-5
-0.695, 2.439e-5
-0.696, 2.427e-5
-0.697, 2.416e-5
-0.698, 2.403e-5
-0.699, 2.390e-5
-0.700, 2.377e-5
-0.701, 2.364e-5
-0.702, 2.351e-5
-0.703, 2.337e-5
-0.704, 2.323e-5
-0.705, 2.309e-5
-0.706, 2.295e-5
-0.707, 2.281e-5
-0.708, 2.267e-5
-0.709, 2.253e-5
-0.710, 2.238e-5
-0.711, 2.224e-5
-0.712, 2.208e-5
-0.713, 2.193e-5
-0.714, 2.178e-5
-0.715, 2.162e-5
-0.716, 2.146e-5
-0.717, 2.128e-5
-0.718, 2.112e-5
-0.719, 2.096e-5
-0.720, 2.078e-5
-0.721, 2.061e-5
-0.722, 2.042e-5
-0.723, 2.024e-5
-0.724, 2.005e-5
-0.725, 1.985e-5
-0.726, 1.967e-5
-0.727, 1.946e-5
-0.728, 1.926e-5
-0.729, 1.905e-5
-0.730, 1.883e-5
-0.731, 1.863e-5
-0.732, 1.839e-5
-0.733, 1.818e-5
-0.734, 1.793e-5
-0.735, 1.769e-5
-0.736, 1.746e-5
-0.737, 1.720e-5
-0.738, 1.695e-5
-0.739, 1.668e-5
-0.740, 1.641e-5
-0.741, 1.614e-5
-0.742, 1.587e-5
-0.743, 1.560e-5
-0.744, 1.527e-5
-0.745, 1.497e-5
-0.746, 1.467e-5
-0.747, 1.432e-5
-0.748, 1.401e-5
-0.749, 1.367e-5
-0.750, 1.332e-5
-0.751, 1.297e-5
-0.752, 1.258e-5
-0.753, 1.222e-5
-0.754, 1.183e-5
-0.755, 1.142e-5
-0.756, 1.103e-5
-0.757, 1.060e-5
-0.758, 1.021e-5
-0.759, 9.753e-6
-0.760, 9.298e-6
-0.761, 8.870e-6
-0.762, 8.370e-6
-0.763, 7.888e-6
-0.764, 7.375e-6
-0.765, 6.865e-6
-0.766, 6.353e-6
-0.767, 5.786e-6
-0.768, 5.165e-6
-0.769, 4.591e-6
-0.770, 4.000e-6
-0.771, 3.434e-6
-0.772, 2.776e-6
-0.773, 2.168e-6
-0.774, 1.497e-6
-0.775, 8.475e-7
-0.776, 1.320e-7
-0.777, -6.155e-7
-0.778, -1.277e-6
-0.779, -2.068e-6
-0.780, -2.821e-6
-0.781, -3.596e-6
-0.782, -4.430e-6
-0.783, -5.225e-6
-0.784, -6.091e-6
-0.785, -6.942e-6
-0.786, -7.810e-6
-0.787, -8.751e-6
-0.788, -9.611e-6
-0.789, -1.060e-5
-0.790, -1.159e-5
-0.791, -1.253e-5
-0.792, -1.363e-5
-0.793, -1.458e-5
-0.794, -1.560e-5
-0.795, -1.674e-5
-0.796, -1.784e-5
-0.797, -1.906e-5
-0.798, -2.016e-5
-0.799, -2.139e-5
-0.800, -2.263e-5
-0.801, -2.382e-5
-0.802, -2.517e-5
-0.803, -2.639e-5
-0.804, -2.774e-5
-0.805, -2.911e-5
-0.806, -3.044e-5
-0.807, -3.190e-5
-0.808, -3.332e-5
-0.809, -3.478e-5
-0.810, -3.628e-5
-0.811, -3.773e-5
-0.812, -3.934e-5
-0.813, -4.084e-5
-0.814, -4.246e-5
-0.815, -4.412e-5
-0.816, -4.572e-5
-0.817, -4.746e-5
-0.818, -4.917e-5
-0.819, -5.068e-5
-0.820, -5.230e-5
-0.821, -5.413e-5
-0.822, -5.602e-5
-0.823, -5.777e-5
-0.824, -5.975e-5
-0.825, -6.164e-5
-0.826, -6.353e-5
-0.827, -6.558e-5
-0.828, -6.750e-5
-0.829, -6.958e-5
-0.830, -7.164e-5
-0.831, -7.363e-5
-0.832, -7.585e-5
-0.833, -7.786e-5
-0.834, -8.005e-5
-0.835, -8.226e-5
-0.836, -8.434e-5
-0.837, -8.670e-5
-0.838, -8.885e-5
-0.839, -9.113e-5
-0.840, -9.351e-5
-0.841, -9.575e-5
-0.842, -9.823e-5
-0.843, -1.005e-4
-0.844, -1.029e-4
-0.845, -1.052e-4
-0.846, -1.076e-4
-0.847, -1.101e-4
-0.848, -1.125e-4
-0.849, -1.151e-4
-0.850, -1.177e-4
-0.851, -1.201e-4
-0.852, -1.228e-4
-0.853, -1.254e-4
-0.854, -1.280e-4
-0.855, -1.306e-4
-0.856, -1.332e-4
-0.857, -1.359e-4
-0.858, -1.386e-4
-0.859, -1.413e-4
-0.860, -1.441e-4
-0.861, -1.467e-4
-0.862, -1.496e-4
-0.863, -1.523e-4
-0.864, -1.551e-4
-0.865, -1.579e-4
-0.866, -1.607e-4
-0.867, -1.637e-4
-0.868, -1.664e-4
-0.869, -1.694e-4
-0.870, -1.724e-4
-0.871, -1.752e-4
-0.872, -1.783e-4
-0.873, -1.811e-4
-0.874, -1.840e-4
-0.875, -1.870e-4
-0.876, -1.898e-4
-0.877, -1.928e-4
-0.878, -1.957e-4
-0.879, -1.987e-4
-0.880, -2.017e-4
-0.881, -2.046e-4
-0.882, -2.077e-4
-0.883, -2.107e-4
-0.884, -2.136e-4
-0.885, -2.167e-4
-0.886, -2.196e-4
-0.887, -2.227e-4
-0.888, -2.257e-4
-0.889, -2.288e-4
-0.890, -2.318e-4
-0.891, -2.347e-4
-0.892, -2.379e-4
-0.893, -2.408e-4
-0.894, -2.438e-4
-0.895, -2.469e-4
-0.896, -2.496e-4
-0.897, -2.527e-4
-0.898, -2.557e-4
-0.899, -2.587e-4
-0.900, -2.617e-4
-0.901, -2.647e-4
-0.902, -2.678e-4
-0.903, -2.707e-4
-0.904, -2.738e-4
-0.905, -2.767e-4
-0.906, -2.796e-4
-0.907, -2.827e-4
-0.908, -2.856e-4
-0.909, -2.886e-4
-0.910, -2.916e-4
-0.911, -2.945e-4
-0.912, -2.975e-4
-0.913, -3.003e-4
-0.914, -3.032e-4
-0.915, -3.061e-4
-0.916, -3.088e-4
-0.917, -3.118e-4
-0.918, -3.145e-4
-0.919, -3.173e-4
-0.920, -3.201e-4
-0.921, -3.228e-4
-0.922, -3.258e-4
-0.923, -3.284e-4
-0.924, -3.311e-4
-0.925, -3.337e-4
-0.926, -3.363e-4
-0.927, -3.391e-4
-0.928, -3.416e-4
-0.929, -3.441e-4
-0.930, -3.467e-4
-0.931, -3.491e-4
-0.932, -3.517e-4
-0.933, -3.541e-4
-0.934, -3.565e-4
-0.935, -3.589e-4
-0.936, -3.612e-4
-0.937, -3.636e-4
-0.938, -3.657e-4
-0.939, -3.680e-4
-0.940, -3.702e-4
-0.941, -3.723e-4
-0.942, -3.744e-4
-0.943, -3.764e-4
-0.944, -3.785e-4
-0.945, -3.805e-4
-0.946, -3.824e-4
-0.947, -3.842e-4
-0.948, -3.859e-4
-0.949, -3.877e-4
-0.950, -3.895e-4
-0.951, -3.910e-4
-0.952, -3.928e-4
-0.953, -3.943e-4
-0.954, -3.958e-4
-0.955, -3.973e-4
-0.956, -3.986e-4
-0.957, -4.001e-4
-0.958, -4.013e-4
-0.959, -4.026e-4
-0.960, -4.038e-4
-0.961, -4.047e-4
-0.962, -4.059e-4
-0.963, -4.067e-4
-0.964, -4.076e-4
-0.965, -4.085e-4
-0.966, -4.091e-4
-0.967, -4.099e-4
-0.968, -4.104e-4
-0.969, -4.109e-4
-0.970, -4.113e-4
-0.971, -4.117e-4
-0.972, -4.121e-4
-0.973, -4.124e-4
-0.974, -4.125e-4
-0.975, -4.125e-4
-0.976, -4.124e-4
-0.977, -4.123e-4
-0.978, -4.121e-4
-0.979, -4.118e-4
-0.980, -4.114e-4
-0.981, -4.109e-4
-0.982, -4.104e-4
-0.983, -4.097e-4
-0.984, -4.090e-4
-0.985, -4.082e-4
-0.986, -4.073e-4
-0.987, -4.065e-4
-0.988, -4.053e-4
-0.989, -4.042e-4
-0.990, -4.031e-4
-0.991, -4.017e-4
-0.992, -4.004e-4
-0.993, -3.989e-4
-0.994, -3.975e-4
-0.995, -3.959e-4
-0.996, -3.942e-4
-0.997, -3.927e-4
-0.998, -3.908e-4
-0.999, -3.889e-4
-1.000, -3.871e-4
-1.001, -3.852e-4
-1.002, -3.833e-4
-1.003, -3.813e-4
-1.004, -3.792e-4
-1.005, -3.772e-4
-1.006, -3.751e-4
-1.007, -3.730e-4
-1.008, -3.708e-4
-1.009, -3.687e-4
-1.010, -3.665e-4
-1.011, -3.643e-4
-1.012, -3.621e-4
-1.013, -3.599e-4
-1.014, -3.577e-4
-1.015, -3.555e-4
-1.016, -3.533e-4
-1.017, -3.511e-4
-1.018, -3.488e-4
-1.019, -3.467e-4
-1.020, -3.445e-4
-1.021, -3.423e-4
-1.022, -3.402e-4
-1.023, -3.381e-4
-1.024, -3.360e-4
-1.025, -3.339e-4
-1.026, -3.318e-4
-1.027, -3.298e-4
-1.028, -3.278e-4
-1.029, -3.258e-4
-1.030, -3.238e-4
-1.031, -3.218e-4
-1.032, -3.200e-4
-1.033, -3.180e-4
-1.034, -3.162e-4
-1.035, -3.144e-4
-1.036, -3.125e-4
-1.037, -3.108e-4
-1.038, -3.090e-4
-1.039, -3.072e-4
-1.040, -3.055e-4
-1.041, -3.038e-4
-1.042, -3.022e-4
-1.043, -3.005e-4
-1.044, -2.989e-4
-1.045, -2.974e-4
-1.046, -2.958e-4
-1.047, -2.942e-4
-1.048, -2.927e-4
-1.049, -2.912e-4
-1.050, -2.897e-4
-1.051, -2.883e-4
-1.052, -2.869e-4
-1.053, -2.854e-4
-1.054, -2.840e-4
-1.055, -2.827e-4
-1.056, -2.813e-4
-1.057, -2.800e-4
-1.058, -2.787e-4
-1.059, -2.774e-4
-1.060, -2.761e-4
-1.061, -2.749e-4
-1.062, -2.737e-4
-1.063, -2.724e-4
-1.064, -2.713e-4
-1.065, -2.701e-4
-1.066, -2.689e-4
-1.067, -2.678e-4
-1.068, -2.667e-4
-1.069, -2.655e-4
-1.070, -2.645e-4
-1.071, -2.634e-4
-1.072, -2.623e-4
-1.073, -2.612e-4
-1.074, -2.602e-4
-1.075, -2.592e-4
-1.076, -2.582e-4
-1.077, -2.572e-4
-1.078, -2.562e-4
-1.079, -2.552e-4
-1.080, -2.542e-4
-1.081, -2.533e-4
-1.082, -2.524e-4
-1.083, -2.514e-4
-1.084, -2.505e-4
-1.085, -2.496e-4
-1.086, -2.487e-4
-1.087, -2.478e-4
-1.088, -2.469e-4
-1.089, -2.461e-4
-1.090, -2.452e-4
-1.091, -2.444e-4
-1.092, -2.436e-4
-1.093, -2.428e-4
-1.094, -2.419e-4
-1.095, -2.411e-4
-1.096, -2.404e-4
-1.097, -2.396e-4
-1.098, -2.388e-4
-1.099, -2.380e-4
-1.100, -2.373e-4
-1.101, -2.365e-4
-1.102, -2.358e-4
-1.103, -2.351e-4
-1.104, -2.343e-4
-1.105, -2.336e-4
-1.106, -2.329e-4
-1.107, -2.323e-4
-1.108, -2.316e-4
-1.109, -2.309e-4
-1.110, -2.302e-4
-1.111, -2.296e-4
-1.112, -2.289e-4
-1.113, -2.282e-4
-1.114, -2.276e-4
-1.115, -2.270e-4
-1.116, -2.263e-4
-1.117, -2.257e-4
-1.118, -2.251e-4
-1.119, -2.244e-4
-1.120, -2.238e-4
-1.121, -2.232e-4
-1.122, -2.226e-4
-1.123, -2.220e-4
-1.124, -2.214e-4
-1.125, -2.208e-4
-1.126, -2.203e-4
-1.127, -2.197e-4
-1.128, -2.191e-4
-1.129, -2.186e-4
-1.130, -2.180e-4
-1.131, -2.175e-4
-1.132, -2.169e-4
-1.133, -2.164e-4
-1.134, -2.159e-4
-1.135, -2.154e-4
-1.136, -2.149e-4
-1.137, -2.144e-4
-1.138, -2.139e-4
-1.139, -2.134e-4
-1.140, -2.129e-4
-1.141, -2.124e-4
-1.142, -2.119e-4
-1.143, -2.114e-4
-1.144, -2.109e-4
-1.145, -2.105e-4
-1.146, -2.100e-4
-1.147, -2.095e-4
-1.148, -2.090e-4
-1.149, -2.085e-4
-1.150, -2.081e-4
-1.151, -2.076e-4
-1.152, -2.071e-4
-1.153, -2.067e-4
-1.154, -2.062e-4
-1.155, -2.058e-4
-1.156, -2.054e-4
-1.157, -2.049e-4
-1.158, -2.045e-4
-1.159, -2.041e-4
-1.160, -2.037e-4
-1.161, -2.033e-4
-1.162, -2.029e-4
-1.163, -2.025e-4
-1.164, -2.021e-4
-1.165, -2.017e-4
-1.166, -2.013e-4
-1.167, -2.009e-4
-1.168, -2.005e-4
-1.169, -2.001e-4
-1.170, -1.998e-4
-1.171, -1.994e-4
-1.172, -1.990e-4
-1.173, -1.987e-4
-1.174, -1.983e-4
-1.175, -1.979e-4
-1.176, -1.975e-4
-1.177, -1.972e-4
-1.178, -1.968e-4
-1.179, -1.964e-4
-1.180, -1.961e-4
-1.181, -1.957e-4
-1.182, -1.953e-4
-1.183, -1.950e-4
-1.184, -1.946e-4
-1.185, -1.943e-4
-1.186, -1.940e-4
-1.187, -1.936e-4
-1.188, -1.933e-4
-1.189, -1.930e-4
-1.190, -1.926e-4
-1.191, -1.923e-4
-1.192, -1.920e-4
-1.193, -1.917e-4
-1.194, -1.913e-4
-1.195, -1.910e-4
-1.196, -1.907e-4
-1.197, -1.904e-4
-1.198, -1.901e-4
-1.199, -1.898e-4
