May 10, 2022   10:05:09
Cyclic Voltammetry
File: c:\users\nstumme\onedrive - university of iowa\documents\year 3\220510\nq\100 mv.csv
Data Source:  Experiment
Instrument Model:  CHI660D
Header: 
Note: 

Init E (V) = -1.2
High E (V) = -0.5
Low E (V) = -1.2
Init P/N = P
Scan Rate (V/s) = 0.1
Segment = 6
Sample Interval (V) = 0.001
Quiet Time (sec) = 2
Sensitivity (A/V) = 1e-4

Segment 1:

Segment 2:

Segment 3:

Segment 4:

Segment 5:

Segment 6:

Potential/V, Current/A

-1.200, -1.654e-4
-1.199, -1.651e-4
-1.198, -1.648e-4
-1.197, -1.645e-4
-1.196, -1.643e-4
-1.195, -1.641e-4
-1.194, -1.638e-4
-1.193, -1.636e-4
-1.192, -1.634e-4
-1.191, -1.632e-4
-1.190, -1.629e-4
-1.189, -1.627e-4
-1.188, -1.625e-4
-1.187, -1.623e-4
-1.186, -1.621e-4
-1.185, -1.619e-4
-1.184, -1.617e-4
-1.183, -1.615e-4
-1.182, -1.613e-4
-1.181, -1.610e-4
-1.180, -1.608e-4
-1.179, -1.606e-4
-1.178, -1.604e-4
-1.177, -1.603e-4
-1.176, -1.601e-4
-1.175, -1.599e-4
-1.174, -1.598e-4
-1.173, -1.596e-4
-1.172, -1.594e-4
-1.171, -1.592e-4
-1.170, -1.591e-4
-1.169, -1.589e-4
-1.168, -1.587e-4
-1.167, -1.585e-4
-1.166, -1.583e-4
-1.165, -1.581e-4
-1.164, -1.580e-4
-1.163, -1.578e-4
-1.162, -1.576e-4
-1.161, -1.575e-4
-1.160, -1.573e-4
-1.159, -1.571e-4
-1.158, -1.570e-4
-1.157, -1.568e-4
-1.156, -1.567e-4
-1.155, -1.565e-4
-1.154, -1.563e-4
-1.153, -1.562e-4
-1.152, -1.560e-4
-1.151, -1.558e-4
-1.150, -1.557e-4
-1.149, -1.555e-4
-1.148, -1.554e-4
-1.147, -1.552e-4
-1.146, -1.551e-4
-1.145, -1.549e-4
-1.144, -1.548e-4
-1.143, -1.547e-4
-1.142, -1.545e-4
-1.141, -1.544e-4
-1.140, -1.542e-4
-1.139, -1.540e-4
-1.138, -1.539e-4
-1.137, -1.537e-4
-1.136, -1.536e-4
-1.135, -1.535e-4
-1.134, -1.533e-4
-1.133, -1.532e-4
-1.132, -1.530e-4
-1.131, -1.529e-4
-1.130, -1.527e-4
-1.129, -1.526e-4
-1.128, -1.524e-4
-1.127, -1.523e-4
-1.126, -1.522e-4
-1.125, -1.521e-4
-1.124, -1.519e-4
-1.123, -1.518e-4
-1.122, -1.517e-4
-1.121, -1.515e-4
-1.120, -1.514e-4
-1.119, -1.512e-4
-1.118, -1.511e-4
-1.117, -1.509e-4
-1.116, -1.508e-4
-1.115, -1.507e-4
-1.114, -1.505e-4
-1.113, -1.504e-4
-1.112, -1.503e-4
-1.111, -1.501e-4
-1.110, -1.500e-4
-1.109, -1.498e-4
-1.108, -1.497e-4
-1.107, -1.495e-4
-1.106, -1.494e-4
-1.105, -1.493e-4
-1.104, -1.491e-4
-1.103, -1.490e-4
-1.102, -1.489e-4
-1.101, -1.488e-4
-1.100, -1.487e-4
-1.099, -1.485e-4
-1.098, -1.484e-4
-1.097, -1.482e-4
-1.096, -1.481e-4
-1.095, -1.480e-4
-1.094, -1.478e-4
-1.093, -1.477e-4
-1.092, -1.475e-4
-1.091, -1.474e-4
-1.090, -1.472e-4
-1.089, -1.470e-4
-1.088, -1.469e-4
-1.087, -1.467e-4
-1.086, -1.466e-4
-1.085, -1.464e-4
-1.084, -1.463e-4
-1.083, -1.462e-4
-1.082, -1.460e-4
-1.081, -1.459e-4
-1.080, -1.458e-4
-1.079, -1.456e-4
-1.078, -1.455e-4
-1.077, -1.453e-4
-1.076, -1.451e-4
-1.075, -1.449e-4
-1.074, -1.447e-4
-1.073, -1.446e-4
-1.072, -1.444e-4
-1.071, -1.442e-4
-1.070, -1.440e-4
-1.069, -1.439e-4
-1.068, -1.437e-4
-1.067, -1.435e-4
-1.066, -1.433e-4
-1.065, -1.431e-4
-1.064, -1.429e-4
-1.063, -1.427e-4
-1.062, -1.425e-4
-1.061, -1.423e-4
-1.060, -1.421e-4
-1.059, -1.419e-4
-1.058, -1.417e-4
-1.057, -1.415e-4
-1.056, -1.413e-4
-1.055, -1.411e-4
-1.054, -1.408e-4
-1.053, -1.406e-4
-1.052, -1.404e-4
-1.051, -1.401e-4
-1.050, -1.398e-4
-1.049, -1.396e-4
-1.048, -1.393e-4
-1.047, -1.390e-4
-1.046, -1.387e-4
-1.045, -1.384e-4
-1.044, -1.381e-4
-1.043, -1.378e-4
-1.042, -1.375e-4
-1.041, -1.372e-4
-1.040, -1.369e-4
-1.039, -1.366e-4
-1.038, -1.363e-4
-1.037, -1.360e-4
-1.036, -1.356e-4
-1.035, -1.352e-4
-1.034, -1.348e-4
-1.033, -1.344e-4
-1.032, -1.341e-4
-1.031, -1.336e-4
-1.030, -1.332e-4
-1.029, -1.328e-4
-1.028, -1.323e-4
-1.027, -1.319e-4
-1.026, -1.314e-4
-1.025, -1.309e-4
-1.024, -1.304e-4
-1.023, -1.299e-4
-1.022, -1.294e-4
-1.021, -1.289e-4
-1.020, -1.283e-4
-1.019, -1.278e-4
-1.018, -1.272e-4
-1.017, -1.267e-4
-1.016, -1.260e-4
-1.015, -1.254e-4
-1.014, -1.248e-4
-1.013, -1.242e-4
-1.012, -1.235e-4
-1.011, -1.228e-4
-1.010, -1.221e-4
-1.009, -1.214e-4
-1.008, -1.206e-4
-1.007, -1.199e-4
-1.006, -1.191e-4
-1.005, -1.183e-4
-1.004, -1.175e-4
-1.003, -1.166e-4
-1.002, -1.158e-4
-1.001, -1.149e-4
-1.000, -1.140e-4
-0.999, -1.131e-4
-0.998, -1.122e-4
-0.997, -1.113e-4
-0.996, -1.103e-4
-0.995, -1.093e-4
-0.994, -1.083e-4
-0.993, -1.072e-4
-0.992, -1.061e-4
-0.991, -1.050e-4
-0.990, -1.039e-4
-0.989, -1.028e-4
-0.988, -1.016e-4
-0.987, -1.004e-4
-0.986, -9.912e-5
-0.985, -9.785e-5
-0.984, -9.657e-5
-0.983, -9.526e-5
-0.982, -9.396e-5
-0.981, -9.259e-5
-0.980, -9.121e-5
-0.979, -8.984e-5
-0.978, -8.842e-5
-0.977, -8.700e-5
-0.976, -8.553e-5
-0.975, -8.404e-5
-0.974, -8.249e-5
-0.973, -8.088e-5
-0.972, -7.922e-5
-0.971, -7.760e-5
-0.970, -7.601e-5
-0.969, -7.438e-5
-0.968, -7.266e-5
-0.967, -7.099e-5
-0.966, -6.925e-5
-0.965, -6.751e-5
-0.964, -6.571e-5
-0.963, -6.389e-5
-0.962, -6.205e-5
-0.961, -6.017e-5
-0.960, -5.830e-5
-0.959, -5.638e-5
-0.958, -5.440e-5
-0.957, -5.247e-5
-0.956, -5.051e-5
-0.955, -4.849e-5
-0.954, -4.649e-5
-0.953, -4.444e-5
-0.952, -4.236e-5
-0.951, -4.025e-5
-0.950, -3.813e-5
-0.949, -3.601e-5
-0.948, -3.382e-5
-0.947, -3.176e-5
-0.946, -2.960e-5
-0.945, -2.736e-5
-0.944, -2.512e-5
-0.943, -2.281e-5
-0.942, -2.054e-5
-0.941, -1.822e-5
-0.940, -1.590e-5
-0.939, -1.351e-5
-0.938, -1.113e-5
-0.937, -8.764e-6
-0.936, -6.355e-6
-0.935, -3.922e-6
-0.934, -1.498e-6
-0.933, 9.926e-7
-0.932, 3.458e-6
-0.931, 5.965e-6
-0.930, 8.428e-6
-0.929, 1.094e-5
-0.928, 1.346e-5
-0.927, 1.596e-5
-0.926, 1.857e-5
-0.925, 2.112e-5
-0.924, 2.367e-5
-0.923, 2.627e-5
-0.922, 2.883e-5
-0.921, 3.156e-5
-0.920, 3.420e-5
-0.919, 3.681e-5
-0.918, 3.943e-5
-0.917, 4.204e-5
-0.916, 4.471e-5
-0.915, 4.731e-5
-0.914, 4.991e-5
-0.913, 5.259e-5
-0.912, 5.522e-5
-0.911, 5.789e-5
-0.910, 6.060e-5
-0.909, 6.328e-5
-0.908, 6.596e-5
-0.907, 6.861e-5
-0.906, 7.130e-5
-0.905, 7.398e-5
-0.904, 7.662e-5
-0.903, 7.930e-5
-0.902, 8.190e-5
-0.901, 8.456e-5
-0.900, 8.723e-5
-0.899, 8.987e-5
-0.898, 9.249e-5
-0.897, 9.514e-5
-0.896, 9.769e-5
-0.895, 1.002e-4
-0.894, 1.028e-4
-0.893, 1.054e-4
-0.892, 1.080e-4
-0.891, 1.107e-4
-0.890, 1.132e-4
-0.889, 1.157e-4
-0.888, 1.183e-4
-0.887, 1.208e-4
-0.886, 1.233e-4
-0.885, 1.258e-4
-0.884, 1.283e-4
-0.883, 1.308e-4
-0.882, 1.333e-4
-0.881, 1.358e-4
-0.880, 1.382e-4
-0.879, 1.405e-4
-0.878, 1.429e-4
-0.877, 1.452e-4
-0.876, 1.475e-4
-0.875, 1.499e-4
-0.874, 1.521e-4
-0.873, 1.543e-4
-0.872, 1.565e-4
-0.871, 1.587e-4
-0.870, 1.611e-4
-0.869, 1.632e-4
-0.868, 1.653e-4
-0.867, 1.673e-4
-0.866, 1.693e-4
-0.865, 1.714e-4
-0.864, 1.733e-4
-0.863, 1.752e-4
-0.862, 1.770e-4
-0.861, 1.789e-4
-0.860, 1.807e-4
-0.859, 1.824e-4
-0.858, 1.841e-4
-0.857, 1.857e-4
-0.856, 1.874e-4
-0.855, 1.890e-4
-0.854, 1.905e-4
-0.853, 1.919e-4
-0.852, 1.933e-4
-0.851, 1.947e-4
-0.850, 1.959e-4
-0.849, 1.972e-4
-0.848, 1.984e-4
-0.847, 1.996e-4
-0.846, 2.007e-4
-0.845, 2.016e-4
-0.844, 2.024e-4
-0.843, 2.033e-4
-0.842, 2.041e-4
-0.841, 2.049e-4
-0.840, 2.056e-4
-0.839, 2.063e-4
-0.838, 2.068e-4
-0.837, 2.073e-4
-0.836, 2.078e-4
-0.835, 2.082e-4
-0.834, 2.084e-4
-0.833, 2.087e-4
-0.832, 2.089e-4
-0.831, 2.090e-4
-0.830, 2.090e-4
-0.829, 2.090e-4
-0.828, 2.088e-4
-0.827, 2.086e-4
-0.826, 2.084e-4
-0.825, 2.080e-4
-0.824, 2.076e-4
-0.823, 2.071e-4
-0.822, 2.065e-4
-0.821, 2.059e-4
-0.820, 2.052e-4
-0.819, 2.042e-4
-0.818, 2.033e-4
-0.817, 2.024e-4
-0.816, 2.015e-4
-0.815, 2.005e-4
-0.814, 1.995e-4
-0.813, 1.984e-4
-0.812, 1.971e-4
-0.811, 1.959e-4
-0.810, 1.946e-4
-0.809, 1.933e-4
-0.808, 1.920e-4
-0.807, 1.906e-4
-0.806, 1.891e-4
-0.805, 1.877e-4
-0.804, 1.861e-4
-0.803, 1.846e-4
-0.802, 1.830e-4
-0.801, 1.814e-4
-0.800, 1.798e-4
-0.799, 1.782e-4
-0.798, 1.765e-4
-0.797, 1.748e-4
-0.796, 1.731e-4
-0.795, 1.715e-4
-0.794, 1.698e-4
-0.793, 1.680e-4
-0.792, 1.663e-4
-0.791, 1.646e-4
-0.790, 1.629e-4
-0.789, 1.613e-4
-0.788, 1.596e-4
-0.787, 1.579e-4
-0.786, 1.563e-4
-0.785, 1.547e-4
-0.784, 1.530e-4
-0.783, 1.514e-4
-0.782, 1.498e-4
-0.781, 1.483e-4
-0.780, 1.467e-4
-0.779, 1.452e-4
-0.778, 1.436e-4
-0.777, 1.421e-4
-0.776, 1.406e-4
-0.775, 1.392e-4
-0.774, 1.377e-4
-0.773, 1.362e-4
-0.772, 1.348e-4
-0.771, 1.334e-4
-0.770, 1.320e-4
-0.769, 1.307e-4
-0.768, 1.293e-4
-0.767, 1.280e-4
-0.766, 1.267e-4
-0.765, 1.254e-4
-0.764, 1.242e-4
-0.763, 1.229e-4
-0.762, 1.217e-4
-0.761, 1.205e-4
-0.760, 1.193e-4
-0.759, 1.181e-4
-0.758, 1.170e-4
-0.757, 1.158e-4
-0.756, 1.147e-4
-0.755, 1.136e-4
-0.754, 1.126e-4
-0.753, 1.115e-4
-0.752, 1.104e-4
-0.751, 1.094e-4
-0.750, 1.083e-4
-0.749, 1.073e-4
-0.748, 1.063e-4
-0.747, 1.053e-4
-0.746, 1.044e-4
-0.745, 1.034e-4
-0.744, 1.025e-4
-0.743, 1.016e-4
-0.742, 1.007e-4
-0.741, 9.982e-5
-0.740, 9.895e-5
-0.739, 9.809e-5
-0.738, 9.723e-5
-0.737, 9.638e-5
-0.736, 9.555e-5
-0.735, 9.473e-5
-0.734, 9.393e-5
-0.733, 9.313e-5
-0.732, 9.235e-5
-0.731, 9.158e-5
-0.730, 9.082e-5
-0.729, 9.007e-5
-0.728, 8.932e-5
-0.727, 8.859e-5
-0.726, 8.787e-5
-0.725, 8.716e-5
-0.724, 8.646e-5
-0.723, 8.576e-5
-0.722, 8.509e-5
-0.721, 8.442e-5
-0.720, 8.376e-5
-0.719, 8.310e-5
-0.718, 8.245e-5
-0.717, 8.182e-5
-0.716, 8.119e-5
-0.715, 8.057e-5
-0.714, 7.996e-5
-0.713, 7.935e-5
-0.712, 7.876e-5
-0.711, 7.817e-5
-0.710, 7.758e-5
-0.709, 7.700e-5
-0.708, 7.642e-5
-0.707, 7.585e-5
-0.706, 7.529e-5
-0.705, 7.474e-5
-0.704, 7.420e-5
-0.703, 7.366e-5
-0.702, 7.314e-5
-0.701, 7.263e-5
-0.700, 7.212e-5
-0.699, 7.162e-5
-0.698, 7.111e-5
-0.697, 7.062e-5
-0.696, 7.012e-5
-0.695, 6.963e-5
-0.694, 6.915e-5
-0.693, 6.867e-5
-0.692, 6.820e-5
-0.691, 6.773e-5
-0.690, 6.727e-5
-0.689, 6.681e-5
-0.688, 6.635e-5
-0.687, 6.590e-5
-0.686, 6.546e-5
-0.685, 6.502e-5
-0.684, 6.459e-5
-0.683, 6.417e-5
-0.682, 6.376e-5
-0.681, 6.335e-5
-0.680, 6.294e-5
-0.679, 6.254e-5
-0.678, 6.213e-5
-0.677, 6.174e-5
-0.676, 6.134e-5
-0.675, 6.094e-5
-0.674, 6.055e-5
-0.673, 6.017e-5
-0.672, 5.979e-5
-0.671, 5.941e-5
-0.670, 5.904e-5
-0.669, 5.868e-5
-0.668, 5.831e-5
-0.667, 5.796e-5
-0.666, 5.760e-5
-0.665, 5.724e-5
-0.664, 5.689e-5
-0.663, 5.653e-5
-0.662, 5.619e-5
-0.661, 5.585e-5
-0.660, 5.551e-5
-0.659, 5.518e-5
-0.658, 5.485e-5
-0.657, 5.453e-5
-0.656, 5.421e-5
-0.655, 5.389e-5
-0.654, 5.357e-5
-0.653, 5.326e-5
-0.652, 5.295e-5
-0.651, 5.264e-5
-0.650, 5.233e-5
-0.649, 5.203e-5
-0.648, 5.172e-5
-0.647, 5.142e-5
-0.646, 5.112e-5
-0.645, 5.082e-5
-0.644, 5.052e-5
-0.643, 5.023e-5
-0.642, 4.995e-5
-0.641, 4.967e-5
-0.640, 4.939e-5
-0.639, 4.911e-5
-0.638, 4.884e-5
-0.637, 4.857e-5
-0.636, 4.830e-5
-0.635, 4.803e-5
-0.634, 4.777e-5
-0.633, 4.749e-5
-0.632, 4.723e-5
-0.631, 4.697e-5
-0.630, 4.671e-5
-0.629, 4.646e-5
-0.628, 4.620e-5
-0.627, 4.596e-5
-0.626, 4.570e-5
-0.625, 4.545e-5
-0.624, 4.521e-5
-0.623, 4.496e-5
-0.622, 4.472e-5
-0.621, 4.448e-5
-0.620, 4.424e-5
-0.619, 4.401e-5
-0.618, 4.377e-5
-0.617, 4.354e-5
-0.616, 4.331e-5
-0.615, 4.308e-5
-0.614, 4.285e-5
-0.613, 4.262e-5
-0.612, 4.240e-5
-0.611, 4.217e-5
-0.610, 4.195e-5
-0.609, 4.174e-5
-0.608, 4.152e-5
-0.607, 4.131e-5
-0.606, 4.110e-5
-0.605, 4.089e-5
-0.604, 4.068e-5
-0.603, 4.047e-5
-0.602, 4.026e-5
-0.601, 4.005e-5
-0.600, 3.983e-5
-0.599, 3.963e-5
-0.598, 3.942e-5
-0.597, 3.923e-5
-0.596, 3.903e-5
-0.595, 3.883e-5
-0.594, 3.864e-5
-0.593, 3.844e-5
-0.592, 3.825e-5
-0.591, 3.806e-5
-0.590, 3.787e-5
-0.589, 3.769e-5
-0.588, 3.750e-5
-0.587, 3.731e-5
-0.586, 3.713e-5
-0.585, 3.695e-5
-0.584, 3.677e-5
-0.583, 3.658e-5
-0.582, 3.640e-5
-0.581, 3.622e-5
-0.580, 3.604e-5
-0.579, 3.586e-5
-0.578, 3.568e-5
-0.577, 3.551e-5
-0.576, 3.534e-5
-0.575, 3.517e-5
-0.574, 3.500e-5
-0.573, 3.482e-5
-0.572, 3.465e-5
-0.571, 3.449e-5
-0.570, 3.432e-5
-0.569, 3.415e-5
-0.568, 3.399e-5
-0.567, 3.384e-5
-0.566, 3.368e-5
-0.565, 3.352e-5
-0.564, 3.337e-5
-0.563, 3.321e-5
-0.562, 3.306e-5
-0.561, 3.289e-5
-0.560, 3.274e-5
-0.559, 3.258e-5
-0.558, 3.242e-5
-0.557, 3.227e-5
-0.556, 3.212e-5
-0.555, 3.197e-5
-0.554, 3.182e-5
-0.553, 3.167e-5
-0.552, 3.152e-5
-0.551, 3.138e-5
-0.550, 3.123e-5
-0.549, 3.109e-5
-0.548, 3.094e-5
-0.547, 3.080e-5
-0.546, 3.066e-5
-0.545, 3.053e-5
-0.544, 3.040e-5
-0.543, 3.025e-5
-0.542, 3.012e-5
-0.541, 2.998e-5
-0.540, 2.984e-5
-0.539, 2.971e-5
-0.538, 2.956e-5
-0.537, 2.944e-5
-0.536, 2.930e-5
-0.535, 2.917e-5
-0.534, 2.904e-5
-0.533, 2.891e-5
-0.532, 2.878e-5
-0.531, 2.865e-5
-0.530, 2.852e-5
-0.529, 2.839e-5
-0.528, 2.826e-5
-0.527, 2.813e-5
-0.526, 2.801e-5
-0.525, 2.789e-5
-0.524, 2.777e-5
-0.523, 2.765e-5
-0.522, 2.753e-5
-0.521, 2.741e-5
-0.520, 2.729e-5
-0.519, 2.718e-5
-0.518, 2.705e-5
-0.517, 2.694e-5
-0.516, 2.682e-5
-0.515, 2.670e-5
-0.514, 2.659e-5
-0.513, 2.647e-5
-0.512, 2.635e-5
-0.511, 2.623e-5
-0.510, 2.611e-5
-0.509, 2.600e-5
-0.508, 2.588e-5
-0.507, 2.577e-5
-0.506, 2.566e-5
-0.505, 2.556e-5
-0.504, 2.545e-5
-0.503, 2.535e-5
-0.502, 2.525e-5
-0.501, 2.514e-5
-0.500, 2.501e-5
-0.501, 2.484e-5
-0.502, 2.469e-5
-0.503, 2.457e-5
-0.504, 2.443e-5
-0.505, 2.431e-5
-0.506, 2.419e-5
-0.507, 2.407e-5
-0.508, 2.395e-5
-0.509, 2.384e-5
-0.510, 2.372e-5
-0.511, 2.361e-5
-0.512, 2.350e-5
-0.513, 2.339e-5
-0.514, 2.328e-5
-0.515, 2.317e-5
-0.516, 2.307e-5
-0.517, 2.296e-5
-0.518, 2.286e-5
-0.519, 2.276e-5
-0.520, 2.266e-5
-0.521, 2.255e-5
-0.522, 2.244e-5
-0.523, 2.235e-5
-0.524, 2.224e-5
-0.525, 2.215e-5
-0.526, 2.205e-5
-0.527, 2.195e-5
-0.528, 2.186e-5
-0.529, 2.176e-5
-0.530, 2.166e-5
-0.531, 2.156e-5
-0.532, 2.146e-5
-0.533, 2.137e-5
-0.534, 2.127e-5
-0.535, 2.117e-5
-0.536, 2.108e-5
-0.537, 2.099e-5
-0.538, 2.090e-5
-0.539, 2.081e-5
-0.540, 2.073e-5
-0.541, 2.064e-5
-0.542, 2.055e-5
-0.543, 2.047e-5
-0.544, 2.037e-5
-0.545, 2.028e-5
-0.546, 2.020e-5
-0.547, 2.011e-5
-0.548, 2.002e-5
-0.549, 1.993e-5
-0.550, 1.984e-5
-0.551, 1.976e-5
-0.552, 1.967e-5
-0.553, 1.959e-5
-0.554, 1.950e-5
-0.555, 1.941e-5
-0.556, 1.933e-5
-0.557, 1.925e-5
-0.558, 1.917e-5
-0.559, 1.909e-5
-0.560, 1.901e-5
-0.561, 1.893e-5
-0.562, 1.884e-5
-0.563, 1.877e-5
-0.564, 1.868e-5
-0.565, 1.860e-5
-0.566, 1.853e-5
-0.567, 1.844e-5
-0.568, 1.837e-5
-0.569, 1.829e-5
-0.570, 1.822e-5
-0.571, 1.814e-5
-0.572, 1.807e-5
-0.573, 1.799e-5
-0.574, 1.791e-5
-0.575, 1.784e-5
-0.576, 1.776e-5
-0.577, 1.768e-5
-0.578, 1.761e-5
-0.579, 1.754e-5
-0.580, 1.746e-5
-0.581, 1.739e-5
-0.582, 1.731e-5
-0.583, 1.725e-5
-0.584, 1.717e-5
-0.585, 1.709e-5
-0.586, 1.703e-5
-0.587, 1.695e-5
-0.588, 1.689e-5
-0.589, 1.682e-5
-0.590, 1.675e-5
-0.591, 1.669e-5
-0.592, 1.662e-5
-0.593, 1.655e-5
-0.594, 1.648e-5
-0.595, 1.641e-5
-0.596, 1.634e-5
-0.597, 1.626e-5
-0.598, 1.619e-5
-0.599, 1.611e-5
-0.600, 1.605e-5
-0.601, 1.598e-5
-0.602, 1.591e-5
-0.603, 1.585e-5
-0.604, 1.579e-5
-0.605, 1.572e-5
-0.606, 1.566e-5
-0.607, 1.559e-5
-0.608, 1.553e-5
-0.609, 1.546e-5
-0.610, 1.540e-5
-0.611, 1.534e-5
-0.612, 1.527e-5
-0.613, 1.520e-5
-0.614, 1.514e-5
-0.615, 1.508e-5
-0.616, 1.502e-5
-0.617, 1.495e-5
-0.618, 1.489e-5
-0.619, 1.482e-5
-0.620, 1.476e-5
-0.621, 1.469e-5
-0.622, 1.463e-5
-0.623, 1.457e-5
-0.624, 1.450e-5
-0.625, 1.444e-5
-0.626, 1.438e-5
-0.627, 1.432e-5
-0.628, 1.426e-5
-0.629, 1.420e-5
-0.630, 1.414e-5
-0.631, 1.409e-5
-0.632, 1.402e-5
-0.633, 1.397e-5
-0.634, 1.391e-5
-0.635, 1.385e-5
-0.636, 1.380e-5
-0.637, 1.373e-5
-0.638, 1.368e-5
-0.639, 1.362e-5
-0.640, 1.356e-5
-0.641, 1.350e-5
-0.642, 1.344e-5
-0.643, 1.338e-5
-0.644, 1.332e-5
-0.645, 1.326e-5
-0.646, 1.321e-5
-0.647, 1.314e-5
-0.648, 1.309e-5
-0.649, 1.303e-5
-0.650, 1.298e-5
-0.651, 1.293e-5
-0.652, 1.287e-5
-0.653, 1.282e-5
-0.654, 1.276e-5
-0.655, 1.271e-5
-0.656, 1.266e-5
-0.657, 1.260e-5
-0.658, 1.254e-5
-0.659, 1.248e-5
-0.660, 1.243e-5
-0.661, 1.237e-5
-0.662, 1.231e-5
-0.663, 1.226e-5
-0.664, 1.220e-5
-0.665, 1.215e-5
-0.666, 1.209e-5
-0.667, 1.203e-5
-0.668, 1.198e-5
-0.669, 1.192e-5
-0.670, 1.187e-5
-0.671, 1.181e-5
-0.672, 1.176e-5
-0.673, 1.171e-5
-0.674, 1.166e-5
-0.675, 1.160e-5
-0.676, 1.155e-5
-0.677, 1.150e-5
-0.678, 1.145e-5
-0.679, 1.139e-5
-0.680, 1.133e-5
-0.681, 1.128e-5
-0.682, 1.122e-5
-0.683, 1.117e-5
-0.684, 1.111e-5
-0.685, 1.105e-5
-0.686, 1.100e-5
-0.687, 1.094e-5
-0.688, 1.088e-5
-0.689, 1.082e-5
-0.690, 1.077e-5
-0.691, 1.071e-5
-0.692, 1.066e-5
-0.693, 1.060e-5
-0.694, 1.054e-5
-0.695, 1.049e-5
-0.696, 1.043e-5
-0.697, 1.037e-5
-0.698, 1.032e-5
-0.699, 1.026e-5
-0.700, 1.020e-5
-0.701, 1.014e-5
-0.702, 1.007e-5
-0.703, 1.001e-5
-0.704, 9.948e-6
-0.705, 9.887e-6
-0.706, 9.829e-6
-0.707, 9.768e-6
-0.708, 9.706e-6
-0.709, 9.633e-6
-0.710, 9.571e-6
-0.711, 9.508e-6
-0.712, 9.436e-6
-0.713, 9.369e-6
-0.714, 9.300e-6
-0.715, 9.234e-6
-0.716, 9.164e-6
-0.717, 9.087e-6
-0.718, 9.025e-6
-0.719, 8.951e-6
-0.720, 8.876e-6
-0.721, 8.806e-6
-0.722, 8.724e-6
-0.723, 8.648e-6
-0.724, 8.573e-6
-0.725, 8.490e-6
-0.726, 8.410e-6
-0.727, 8.329e-6
-0.728, 8.243e-6
-0.729, 8.152e-6
-0.730, 8.067e-6
-0.731, 7.976e-6
-0.732, 7.880e-6
-0.733, 7.792e-6
-0.734, 7.695e-6
-0.735, 7.600e-6
-0.736, 7.506e-6
-0.737, 7.403e-6
-0.738, 7.308e-6
-0.739, 7.199e-6
-0.740, 7.098e-6
-0.741, 6.989e-6
-0.742, 6.880e-6
-0.743, 6.777e-6
-0.744, 6.649e-6
-0.745, 6.532e-6
-0.746, 6.406e-6
-0.747, 6.274e-6
-0.748, 6.145e-6
-0.749, 6.016e-6
-0.750, 5.885e-6
-0.751, 5.746e-6
-0.752, 5.606e-6
-0.753, 5.457e-6
-0.754, 5.303e-6
-0.755, 5.146e-6
-0.756, 4.986e-6
-0.757, 4.819e-6
-0.758, 4.654e-6
-0.759, 4.479e-6
-0.760, 4.298e-6
-0.761, 4.121e-6
-0.762, 3.928e-6
-0.763, 3.737e-6
-0.764, 3.535e-6
-0.765, 3.324e-6
-0.766, 3.123e-6
-0.767, 2.900e-6
-0.768, 2.659e-6
-0.769, 2.429e-6
-0.770, 2.186e-6
-0.771, 1.964e-6
-0.772, 1.718e-6
-0.773, 1.450e-6
-0.774, 1.193e-6
-0.775, 9.174e-7
-0.776, 6.258e-7
-0.777, 3.387e-7
-0.778, 4.329e-8
-0.779, -2.750e-7
-0.780, -6.024e-7
-0.781, -9.285e-7
-0.782, -1.262e-6
-0.783, -1.610e-6
-0.784, -1.952e-6
-0.785, -2.331e-6
-0.786, -2.713e-6
-0.787, -3.101e-6
-0.788, -3.498e-6
-0.789, -3.916e-6
-0.790, -4.342e-6
-0.791, -4.773e-6
-0.792, -5.232e-6
-0.793, -5.705e-6
-0.794, -6.130e-6
-0.795, -6.645e-6
-0.796, -7.168e-6
-0.797, -7.685e-6
-0.798, -8.228e-6
-0.799, -8.799e-6
-0.800, -9.369e-6
-0.801, -9.924e-6
-0.802, -1.054e-5
-0.803, -1.117e-5
-0.804, -1.180e-5
-0.805, -1.247e-5
-0.806, -1.314e-5
-0.807, -1.387e-5
-0.808, -1.457e-5
-0.809, -1.529e-5
-0.810, -1.607e-5
-0.811, -1.682e-5
-0.812, -1.761e-5
-0.813, -1.839e-5
-0.814, -1.923e-5
-0.815, -2.012e-5
-0.816, -2.097e-5
-0.817, -2.188e-5
-0.818, -2.281e-5
-0.819, -2.364e-5
-0.820, -2.448e-5
-0.821, -2.551e-5
-0.822, -2.655e-5
-0.823, -2.760e-5
-0.824, -2.870e-5
-0.825, -2.979e-5
-0.826, -3.086e-5
-0.827, -3.202e-5
-0.828, -3.319e-5
-0.829, -3.438e-5
-0.830, -3.560e-5
-0.831, -3.685e-5
-0.832, -3.813e-5
-0.833, -3.943e-5
-0.834, -4.075e-5
-0.835, -4.209e-5
-0.836, -4.345e-5
-0.837, -4.487e-5
-0.838, -4.630e-5
-0.839, -4.771e-5
-0.840, -4.921e-5
-0.841, -5.073e-5
-0.842, -5.227e-5
-0.843, -5.385e-5
-0.844, -5.543e-5
-0.845, -5.694e-5
-0.846, -5.853e-5
-0.847, -6.025e-5
-0.848, -6.193e-5
-0.849, -6.364e-5
-0.850, -6.545e-5
-0.851, -6.718e-5
-0.852, -6.897e-5
-0.853, -7.084e-5
-0.854, -7.269e-5
-0.855, -7.458e-5
-0.856, -7.648e-5
-0.857, -7.844e-5
-0.858, -8.043e-5
-0.859, -8.240e-5
-0.860, -8.445e-5
-0.861, -8.648e-5
-0.862, -8.851e-5
-0.863, -9.063e-5
-0.864, -9.270e-5
-0.865, -9.482e-5
-0.866, -9.701e-5
-0.867, -9.920e-5
-0.868, -1.014e-4
-0.869, -1.037e-4
-0.870, -1.059e-4
-0.871, -1.083e-4
-0.872, -1.106e-4
-0.873, -1.129e-4
-0.874, -1.152e-4
-0.875, -1.176e-4
-0.876, -1.199e-4
-0.877, -1.223e-4
-0.878, -1.248e-4
-0.879, -1.272e-4
-0.880, -1.297e-4
-0.881, -1.321e-4
-0.882, -1.347e-4
-0.883, -1.372e-4
-0.884, -1.397e-4
-0.885, -1.423e-4
-0.886, -1.448e-4
-0.887, -1.473e-4
-0.888, -1.500e-4
-0.889, -1.525e-4
-0.890, -1.551e-4
-0.891, -1.577e-4
-0.892, -1.604e-4
-0.893, -1.630e-4
-0.894, -1.657e-4
-0.895, -1.684e-4
-0.896, -1.710e-4
-0.897, -1.735e-4
-0.898, -1.763e-4
-0.899, -1.790e-4
-0.900, -1.817e-4
-0.901, -1.845e-4
-0.902, -1.872e-4
-0.903, -1.899e-4
-0.904, -1.927e-4
-0.905, -1.955e-4
-0.906, -1.982e-4
-0.907, -2.009e-4
-0.908, -2.037e-4
-0.909, -2.065e-4
-0.910, -2.093e-4
-0.911, -2.121e-4
-0.912, -2.148e-4
-0.913, -2.176e-4
-0.914, -2.203e-4
-0.915, -2.231e-4
-0.916, -2.258e-4
-0.917, -2.286e-4
-0.918, -2.313e-4
-0.919, -2.340e-4
-0.920, -2.368e-4
-0.921, -2.395e-4
-0.922, -2.424e-4
-0.923, -2.452e-4
-0.924, -2.479e-4
-0.925, -2.505e-4
-0.926, -2.532e-4
-0.927, -2.559e-4
-0.928, -2.586e-4
-0.929, -2.612e-4
-0.930, -2.638e-4
-0.931, -2.664e-4
-0.932, -2.690e-4
-0.933, -2.716e-4
-0.934, -2.742e-4
-0.935, -2.768e-4
-0.936, -2.793e-4
-0.937, -2.818e-4
-0.938, -2.843e-4
-0.939, -2.867e-4
-0.940, -2.892e-4
-0.941, -2.916e-4
-0.942, -2.940e-4
-0.943, -2.964e-4
-0.944, -2.987e-4
-0.945, -3.010e-4
-0.946, -3.033e-4
-0.947, -3.055e-4
-0.948, -3.076e-4
-0.949, -3.099e-4
-0.950, -3.120e-4
-0.951, -3.141e-4
-0.952, -3.162e-4
-0.953, -3.183e-4
-0.954, -3.202e-4
-0.955, -3.222e-4
-0.956, -3.242e-4
-0.957, -3.261e-4
-0.958, -3.279e-4
-0.959, -3.297e-4
-0.960, -3.315e-4
-0.961, -3.332e-4
-0.962, -3.349e-4
-0.963, -3.365e-4
-0.964, -3.380e-4
-0.965, -3.396e-4
-0.966, -3.410e-4
-0.967, -3.424e-4
-0.968, -3.438e-4
-0.969, -3.450e-4
-0.970, -3.462e-4
-0.971, -3.474e-4
-0.972, -3.485e-4
-0.973, -3.497e-4
-0.974, -3.507e-4
-0.975, -3.517e-4
-0.976, -3.525e-4
-0.977, -3.532e-4
-0.978, -3.540e-4
-0.979, -3.546e-4
-0.980, -3.551e-4
-0.981, -3.556e-4
-0.982, -3.560e-4
-0.983, -3.564e-4
-0.984, -3.566e-4
-0.985, -3.569e-4
-0.986, -3.570e-4
-0.987, -3.570e-4
-0.988, -3.570e-4
-0.989, -3.569e-4
-0.990, -3.567e-4
-0.991, -3.564e-4
-0.992, -3.561e-4
-0.993, -3.556e-4
-0.994, -3.551e-4
-0.995, -3.545e-4
-0.996, -3.538e-4
-0.997, -3.531e-4
-0.998, -3.523e-4
-0.999, -3.513e-4
-1.000, -3.503e-4
-1.001, -3.492e-4
-1.002, -3.481e-4
-1.003, -3.470e-4
-1.004, -3.458e-4
-1.005, -3.444e-4
-1.006, -3.430e-4
-1.007, -3.416e-4
-1.008, -3.401e-4
-1.009, -3.385e-4
-1.010, -3.370e-4
-1.011, -3.353e-4
-1.012, -3.336e-4
-1.013, -3.319e-4
-1.014, -3.301e-4
-1.015, -3.283e-4
-1.016, -3.265e-4
-1.017, -3.246e-4
-1.018, -3.227e-4
-1.019, -3.208e-4
-1.020, -3.189e-4
-1.021, -3.169e-4
-1.022, -3.150e-4
-1.023, -3.130e-4
-1.024, -3.110e-4
-1.025, -3.091e-4
-1.026, -3.071e-4
-1.027, -3.051e-4
-1.028, -3.031e-4
-1.029, -3.012e-4
-1.030, -2.992e-4
-1.031, -2.973e-4
-1.032, -2.953e-4
-1.033, -2.934e-4
-1.034, -2.915e-4
-1.035, -2.896e-4
-1.036, -2.878e-4
-1.037, -2.860e-4
-1.038, -2.841e-4
-1.039, -2.823e-4
-1.040, -2.806e-4
-1.041, -2.788e-4
-1.042, -2.771e-4
-1.043, -2.753e-4
-1.044, -2.736e-4
-1.045, -2.720e-4
-1.046, -2.704e-4
-1.047, -2.687e-4
-1.048, -2.672e-4
-1.049, -2.656e-4
-1.050, -2.640e-4
-1.051, -2.625e-4
-1.052, -2.610e-4
-1.053, -2.595e-4
-1.054, -2.580e-4
-1.055, -2.566e-4
-1.056, -2.552e-4
-1.057, -2.538e-4
-1.058, -2.525e-4
-1.059, -2.511e-4
-1.060, -2.498e-4
-1.061, -2.485e-4
-1.062, -2.472e-4
-1.063, -2.460e-4
-1.064, -2.448e-4
-1.065, -2.435e-4
-1.066, -2.423e-4
-1.067, -2.412e-4
-1.068, -2.400e-4
-1.069, -2.388e-4
-1.070, -2.377e-4
-1.071, -2.366e-4
-1.072, -2.355e-4
-1.073, -2.344e-4
-1.074, -2.333e-4
-1.075, -2.323e-4
-1.076, -2.313e-4
-1.077, -2.303e-4
-1.078, -2.293e-4
-1.079, -2.283e-4
-1.080, -2.273e-4
-1.081, -2.264e-4
-1.082, -2.255e-4
-1.083, -2.245e-4
-1.084, -2.236e-4
-1.085, -2.227e-4
-1.086, -2.218e-4
-1.087, -2.209e-4
-1.088, -2.201e-4
-1.089, -2.192e-4
-1.090, -2.184e-4
-1.091, -2.176e-4
-1.092, -2.167e-4
-1.093, -2.159e-4
-1.094, -2.151e-4
-1.095, -2.144e-4
-1.096, -2.136e-4
-1.097, -2.128e-4
-1.098, -2.121e-4
-1.099, -2.113e-4
-1.100, -2.106e-4
-1.101, -2.098e-4
-1.102, -2.091e-4
-1.103, -2.084e-4
-1.104, -2.078e-4
-1.105, -2.071e-4
-1.106, -2.064e-4
-1.107, -2.058e-4
-1.108, -2.051e-4
-1.109, -2.045e-4
-1.110, -2.038e-4
-1.111, -2.032e-4
-1.112, -2.026e-4
-1.113, -2.019e-4
-1.114, -2.013e-4
-1.115, -2.007e-4
-1.116, -2.001e-4
-1.117, -1.995e-4
-1.118, -1.989e-4
-1.119, -1.983e-4
-1.120, -1.978e-4
-1.121, -1.972e-4
-1.122, -1.967e-4
-1.123, -1.961e-4
-1.124, -1.956e-4
-1.125, -1.951e-4
-1.126, -1.946e-4
-1.127, -1.940e-4
-1.128, -1.935e-4
-1.129, -1.930e-4
-1.130, -1.925e-4
-1.131, -1.920e-4
-1.132, -1.915e-4
-1.133, -1.910e-4
-1.134, -1.905e-4
-1.135, -1.901e-4
-1.136, -1.896e-4
-1.137, -1.891e-4
-1.138, -1.887e-4
-1.139, -1.882e-4
-1.140, -1.878e-4
-1.141, -1.873e-4
-1.142, -1.869e-4
-1.143, -1.865e-4
-1.144, -1.860e-4
-1.145, -1.856e-4
-1.146, -1.852e-4
-1.147, -1.848e-4
-1.148, -1.844e-4
-1.149, -1.840e-4
-1.150, -1.836e-4
-1.151, -1.832e-4
-1.152, -1.828e-4
-1.153, -1.824e-4
-1.154, -1.820e-4
-1.155, -1.816e-4
-1.156, -1.813e-4
-1.157, -1.809e-4
-1.158, -1.805e-4
-1.159, -1.801e-4
-1.160, -1.798e-4
-1.161, -1.794e-4
-1.162, -1.791e-4
-1.163, -1.787e-4
-1.164, -1.783e-4
-1.165, -1.780e-4
-1.166, -1.777e-4
-1.167, -1.773e-4
-1.168, -1.770e-4
-1.169, -1.767e-4
-1.170, -1.764e-4
-1.171, -1.761e-4
-1.172, -1.758e-4
-1.173, -1.755e-4
-1.174, -1.752e-4
-1.175, -1.749e-4
-1.176, -1.745e-4
-1.177, -1.742e-4
-1.178, -1.739e-4
-1.179, -1.736e-4
-1.180, -1.733e-4
-1.181, -1.730e-4
-1.182, -1.727e-4
-1.183, -1.725e-4
-1.184, -1.722e-4
-1.185, -1.719e-4
-1.186, -1.716e-4
-1.187, -1.714e-4
-1.188, -1.711e-4
-1.189, -1.708e-4
-1.190, -1.706e-4
-1.191, -1.703e-4
-1.192, -1.700e-4
-1.193, -1.698e-4
-1.194, -1.695e-4
-1.195, -1.693e-4
-1.196, -1.690e-4
-1.197, -1.688e-4
-1.198, -1.686e-4
-1.199, -1.683e-4
-1.200, -1.681e-4
-1.199, -1.676e-4
-1.198, -1.673e-4
-1.197, -1.669e-4
-1.196, -1.666e-4
-1.195, -1.663e-4
-1.194, -1.660e-4
-1.193, -1.657e-4
-1.192, -1.654e-4
-1.191, -1.651e-4
-1.190, -1.649e-4
-1.189, -1.646e-4
-1.188, -1.644e-4
-1.187, -1.642e-4
-1.186, -1.640e-4
-1.185, -1.638e-4
-1.184, -1.636e-4
-1.183, -1.634e-4
-1.182, -1.632e-4
-1.181, -1.629e-4
-1.180, -1.627e-4
-1.179, -1.625e-4
-1.178, -1.623e-4
-1.177, -1.620e-4
-1.176, -1.618e-4
-1.175, -1.616e-4
-1.174, -1.614e-4
-1.173, -1.612e-4
-1.172, -1.610e-4
-1.171, -1.608e-4
-1.170, -1.606e-4
-1.169, -1.604e-4
-1.168, -1.602e-4
-1.167, -1.600e-4
-1.166, -1.598e-4
-1.165, -1.597e-4
-1.164, -1.595e-4
-1.163, -1.593e-4
-1.162, -1.591e-4
-1.161, -1.590e-4
-1.160, -1.588e-4
-1.159, -1.586e-4
-1.158, -1.584e-4
-1.157, -1.583e-4
-1.156, -1.581e-4
-1.155, -1.579e-4
-1.154, -1.577e-4
-1.153, -1.575e-4
-1.152, -1.574e-4
-1.151, -1.572e-4
-1.150, -1.570e-4
-1.149, -1.568e-4
-1.148, -1.567e-4
-1.147, -1.565e-4
-1.146, -1.563e-4
-1.145, -1.562e-4
-1.144, -1.560e-4
-1.143, -1.559e-4
-1.142, -1.557e-4
-1.141, -1.556e-4
-1.140, -1.554e-4
-1.139, -1.553e-4
-1.138, -1.551e-4
-1.137, -1.550e-4
-1.136, -1.548e-4
-1.135, -1.547e-4
-1.134, -1.545e-4
-1.133, -1.544e-4
-1.132, -1.542e-4
-1.131, -1.540e-4
-1.130, -1.538e-4
-1.129, -1.537e-4
-1.128, -1.535e-4
-1.127, -1.534e-4
-1.126, -1.532e-4
-1.125, -1.531e-4
-1.124, -1.530e-4
-1.123, -1.528e-4
-1.122, -1.527e-4
-1.121, -1.526e-4
-1.120, -1.524e-4
-1.119, -1.523e-4
-1.118, -1.521e-4
-1.117, -1.520e-4
-1.116, -1.518e-4
-1.115, -1.517e-4
-1.114, -1.516e-4
-1.113, -1.514e-4
-1.112, -1.513e-4
-1.111, -1.511e-4
-1.110, -1.510e-4
-1.109, -1.508e-4
-1.108, -1.507e-4
-1.107, -1.505e-4
-1.106, -1.504e-4
-1.105, -1.502e-4
-1.104, -1.501e-4
-1.103, -1.500e-4
-1.102, -1.498e-4
-1.101, -1.497e-4
-1.100, -1.496e-4
-1.099, -1.494e-4
-1.098, -1.493e-4
-1.097, -1.492e-4
-1.096, -1.490e-4
-1.095, -1.489e-4
-1.094, -1.488e-4
-1.093, -1.486e-4
-1.092, -1.485e-4
-1.091, -1.483e-4
-1.090, -1.482e-4
-1.089, -1.480e-4
-1.088, -1.479e-4
-1.087, -1.477e-4
-1.086, -1.475e-4
-1.085, -1.474e-4
-1.084, -1.472e-4
-1.083, -1.471e-4
-1.082, -1.469e-4
-1.081, -1.468e-4
-1.080, -1.467e-4
-1.079, -1.465e-4
-1.078, -1.464e-4
-1.077, -1.462e-4
-1.076, -1.461e-4
-1.075, -1.459e-4
-1.074, -1.458e-4
-1.073, -1.456e-4
-1.072, -1.454e-4
-1.071, -1.453e-4
-1.070, -1.451e-4
-1.069, -1.449e-4
-1.068, -1.448e-4
-1.067, -1.446e-4
-1.066, -1.444e-4
-1.065, -1.442e-4
-1.064, -1.440e-4
-1.063, -1.438e-4
-1.062, -1.436e-4
-1.061, -1.434e-4
-1.060, -1.433e-4
-1.059, -1.431e-4
-1.058, -1.429e-4
-1.057, -1.427e-4
-1.056, -1.425e-4
-1.055, -1.422e-4
-1.054, -1.420e-4
-1.053, -1.418e-4
-1.052, -1.416e-4
-1.051, -1.414e-4
-1.050, -1.412e-4
-1.049, -1.410e-4
-1.048, -1.408e-4
-1.047, -1.405e-4
-1.046, -1.403e-4
-1.045, -1.400e-4
-1.044, -1.397e-4
-1.043, -1.394e-4
-1.042, -1.391e-4
-1.041, -1.388e-4
-1.040, -1.386e-4
-1.039, -1.383e-4
-1.038, -1.380e-4
-1.037, -1.377e-4
-1.036, -1.374e-4
-1.035, -1.370e-4
-1.034, -1.367e-4
-1.033, -1.364e-4
-1.032, -1.361e-4
-1.031, -1.357e-4
-1.030, -1.354e-4
-1.029, -1.350e-4
-1.028, -1.346e-4
-1.027, -1.343e-4
-1.026, -1.339e-4
-1.025, -1.334e-4
-1.024, -1.330e-4
-1.023, -1.325e-4
-1.022, -1.320e-4
-1.021, -1.316e-4
-1.020, -1.311e-4
-1.019, -1.306e-4
-1.018, -1.302e-4
-1.017, -1.297e-4
-1.016, -1.291e-4
-1.015, -1.286e-4
-1.014, -1.280e-4
-1.013, -1.275e-4
-1.012, -1.269e-4
-1.011, -1.263e-4
-1.010, -1.257e-4
-1.009, -1.251e-4
-1.008, -1.245e-4
-1.007, -1.238e-4
-1.006, -1.231e-4
-1.005, -1.225e-4
-1.004, -1.217e-4
-1.003, -1.210e-4
-1.002, -1.203e-4
-1.001, -1.195e-4
-1.000, -1.187e-4
-0.999, -1.179e-4
-0.998, -1.171e-4
-0.997, -1.163e-4
-0.996, -1.154e-4
-0.995, -1.145e-4
-0.994, -1.136e-4
-0.993, -1.126e-4
-0.992, -1.117e-4
-0.991, -1.107e-4
-0.990, -1.098e-4
-0.989, -1.088e-4
-0.988, -1.078e-4
-0.987, -1.067e-4
-0.986, -1.056e-4
-0.985, -1.045e-4
-0.984, -1.034e-4
-0.983, -1.022e-4
-0.982, -1.010e-4
-0.981, -9.980e-5
-0.980, -9.857e-5
-0.979, -9.729e-5
-0.978, -9.605e-5
-0.977, -9.472e-5
-0.976, -9.340e-5
-0.975, -9.209e-5
-0.974, -9.067e-5
-0.973, -8.925e-5
-0.972, -8.771e-5
-0.971, -8.623e-5
-0.970, -8.482e-5
-0.969, -8.332e-5
-0.968, -8.181e-5
-0.967, -8.024e-5
-0.966, -7.866e-5
-0.965, -7.706e-5
-0.964, -7.543e-5
-0.963, -7.381e-5
-0.962, -7.210e-5
-0.961, -7.036e-5
-0.960, -6.862e-5
-0.959, -6.685e-5
-0.958, -6.506e-5
-0.957, -6.325e-5
-0.956, -6.140e-5
-0.955, -5.954e-5
-0.954, -5.764e-5
-0.953, -5.577e-5
-0.952, -5.383e-5
-0.951, -5.183e-5
-0.950, -4.986e-5
-0.949, -4.786e-5
-0.948, -4.584e-5
-0.947, -4.389e-5
-0.946, -4.187e-5
-0.945, -3.976e-5
-0.944, -3.760e-5
-0.943, -3.551e-5
-0.942, -3.332e-5
-0.941, -3.115e-5
-0.940, -2.900e-5
-0.939, -2.672e-5
-0.938, -2.448e-5
-0.937, -2.218e-5
-0.936, -1.991e-5
-0.935, -1.761e-5
-0.934, -1.521e-5
-0.933, -1.289e-5
-0.932, -1.052e-5
-0.931, -8.171e-6
-0.930, -5.783e-6
-0.929, -3.307e-6
-0.928, -9.170e-7
-0.927, 1.517e-6
-0.926, 4.015e-6
-0.925, 6.450e-6
-0.924, 8.956e-6
-0.923, 1.148e-5
-0.922, 1.401e-5
-0.921, 1.666e-5
-0.920, 1.917e-5
-0.919, 2.174e-5
-0.918, 2.425e-5
-0.917, 2.678e-5
-0.916, 2.938e-5
-0.915, 3.193e-5
-0.914, 3.458e-5
-0.913, 3.720e-5
-0.912, 3.979e-5
-0.911, 4.242e-5
-0.910, 4.504e-5
-0.909, 4.770e-5
-0.908, 5.031e-5
-0.907, 5.296e-5
-0.906, 5.561e-5
-0.905, 5.823e-5
-0.904, 6.093e-5
-0.903, 6.355e-5
-0.902, 6.616e-5
-0.901, 6.883e-5
-0.900, 7.148e-5
-0.899, 7.416e-5
-0.898, 7.677e-5
-0.897, 7.942e-5
-0.896, 8.201e-5
-0.895, 8.451e-5
-0.894, 8.717e-5
-0.893, 8.979e-5
-0.892, 9.246e-5
-0.891, 9.508e-5
-0.890, 9.768e-5
-0.889, 1.003e-4
-0.888, 1.029e-4
-0.887, 1.055e-4
-0.886, 1.081e-4
-0.885, 1.106e-4
-0.884, 1.132e-4
-0.883, 1.158e-4
-0.882, 1.183e-4
-0.881, 1.208e-4
-0.880, 1.233e-4
-0.879, 1.258e-4
-0.878, 1.283e-4
-0.877, 1.307e-4
-0.876, 1.331e-4
-0.875, 1.355e-4
-0.874, 1.379e-4
-0.873, 1.402e-4
-0.872, 1.426e-4
-0.871, 1.450e-4
-0.870, 1.474e-4
-0.869, 1.497e-4
-0.868, 1.519e-4
-0.867, 1.541e-4
-0.866, 1.563e-4
-0.865, 1.585e-4
-0.864, 1.606e-4
-0.863, 1.626e-4
-0.862, 1.647e-4
-0.861, 1.668e-4
-0.860, 1.688e-4
-0.859, 1.708e-4
-0.858, 1.726e-4
-0.857, 1.745e-4
-0.856, 1.764e-4
-0.855, 1.782e-4
-0.854, 1.799e-4
-0.853, 1.817e-4
-0.852, 1.833e-4
-0.851, 1.850e-4
-0.850, 1.865e-4
-0.849, 1.881e-4
-0.848, 1.895e-4
-0.847, 1.910e-4
-0.846, 1.924e-4
-0.845, 1.937e-4
-0.844, 1.949e-4
-0.843, 1.961e-4
-0.842, 1.972e-4
-0.841, 1.984e-4
-0.840, 1.994e-4
-0.839, 2.005e-4
-0.838, 2.014e-4
-0.837, 2.023e-4
-0.836, 2.031e-4
-0.835, 2.038e-4
-0.834, 2.044e-4
-0.833, 2.050e-4
-0.832, 2.056e-4
-0.831, 2.061e-4
-0.830, 2.066e-4
-0.829, 2.070e-4
-0.828, 2.072e-4
-0.827, 2.074e-4
-0.826, 2.076e-4
-0.825, 2.076e-4
-0.824, 2.076e-4
-0.823, 2.075e-4
-0.822, 2.073e-4
-0.821, 2.071e-4
-0.820, 2.068e-4
-0.819, 2.062e-4
-0.818, 2.056e-4
-0.817, 2.052e-4
-0.816, 2.046e-4
-0.815, 2.040e-4
-0.814, 2.033e-4
-0.813, 2.026e-4
-0.812, 2.017e-4
-0.811, 2.008e-4
-0.810, 1.999e-4
-0.809, 1.989e-4
-0.808, 1.978e-4
-0.807, 1.967e-4
-0.806, 1.955e-4
-0.805, 1.943e-4
-0.804, 1.930e-4
-0.803, 1.916e-4
-0.802, 1.903e-4
-0.801, 1.889e-4
-0.800, 1.874e-4
-0.799, 1.859e-4
-0.798, 1.844e-4
-0.797, 1.829e-4
-0.796, 1.813e-4
-0.795, 1.797e-4
-0.794, 1.781e-4
-0.793, 1.763e-4
-0.792, 1.747e-4
-0.791, 1.731e-4
-0.790, 1.714e-4
-0.789, 1.697e-4
-0.788, 1.680e-4
-0.787, 1.663e-4
-0.786, 1.647e-4
-0.785, 1.630e-4
-0.784, 1.613e-4
-0.783, 1.597e-4
-0.782, 1.580e-4
-0.781, 1.564e-4
-0.780, 1.547e-4
-0.779, 1.531e-4
-0.778, 1.515e-4
-0.777, 1.499e-4
-0.776, 1.483e-4
-0.775, 1.467e-4
-0.774, 1.452e-4
-0.773, 1.436e-4
-0.772, 1.421e-4
-0.771, 1.406e-4
-0.770, 1.391e-4
-0.769, 1.377e-4
-0.768, 1.362e-4
-0.767, 1.348e-4
-0.766, 1.334e-4
-0.765, 1.320e-4
-0.764, 1.306e-4
-0.763, 1.292e-4
-0.762, 1.279e-4
-0.761, 1.266e-4
-0.760, 1.253e-4
-0.759, 1.240e-4
-0.758, 1.227e-4
-0.757, 1.215e-4
-0.756, 1.203e-4
-0.755, 1.191e-4
-0.754, 1.179e-4
-0.753, 1.168e-4
-0.752, 1.156e-4
-0.751, 1.145e-4
-0.750, 1.134e-4
-0.749, 1.123e-4
-0.748, 1.112e-4
-0.747, 1.101e-4
-0.746, 1.091e-4
-0.745, 1.080e-4
-0.744, 1.070e-4
-0.743, 1.060e-4
-0.742, 1.050e-4
-0.741, 1.040e-4
-0.740, 1.031e-4
-0.739, 1.021e-4
-0.738, 1.012e-4
-0.737, 1.003e-4
-0.736, 9.939e-5
-0.735, 9.851e-5
-0.734, 9.764e-5
-0.733, 9.677e-5
-0.732, 9.592e-5
-0.731, 9.509e-5
-0.730, 9.426e-5
-0.729, 9.345e-5
-0.728, 9.265e-5
-0.727, 9.185e-5
-0.726, 9.107e-5
-0.725, 9.030e-5
-0.724, 8.954e-5
-0.723, 8.878e-5
-0.722, 8.804e-5
-0.721, 8.731e-5
-0.720, 8.659e-5
-0.719, 8.587e-5
-0.718, 8.517e-5
-0.717, 8.449e-5
-0.716, 8.381e-5
-0.715, 8.314e-5
-0.714, 8.248e-5
-0.713, 8.183e-5
-0.712, 8.120e-5
-0.711, 8.057e-5
-0.710, 7.995e-5
-0.709, 7.933e-5
-0.708, 7.871e-5
-0.707, 7.810e-5
-0.706, 7.749e-5
-0.705, 7.690e-5
-0.704, 7.631e-5
-0.703, 7.573e-5
-0.702, 7.517e-5
-0.701, 7.460e-5
-0.700, 7.404e-5
-0.699, 7.349e-5
-0.698, 7.295e-5
-0.697, 7.242e-5
-0.696, 7.190e-5
-0.695, 7.138e-5
-0.694, 7.086e-5
-0.693, 7.036e-5
-0.692, 6.986e-5
-0.691, 6.935e-5
-0.690, 6.886e-5
-0.689, 6.837e-5
-0.688, 6.790e-5
-0.687, 6.742e-5
-0.686, 6.695e-5
-0.685, 6.648e-5
-0.684, 6.602e-5
-0.683, 6.556e-5
-0.682, 6.511e-5
-0.681, 6.466e-5
-0.680, 6.423e-5
-0.679, 6.379e-5
-0.678, 6.336e-5
-0.677, 6.294e-5
-0.676, 6.252e-5
-0.675, 6.210e-5
-0.674, 6.168e-5
-0.673, 6.127e-5
-0.672, 6.087e-5
-0.671, 6.047e-5
-0.670, 6.008e-5
-0.669, 5.969e-5
-0.668, 5.930e-5
-0.667, 5.892e-5
-0.666, 5.854e-5
-0.665, 5.818e-5
-0.664, 5.781e-5
-0.663, 5.744e-5
-0.662, 5.708e-5
-0.661, 5.671e-5
-0.660, 5.635e-5
-0.659, 5.599e-5
-0.658, 5.564e-5
-0.657, 5.528e-5
-0.656, 5.493e-5
-0.655, 5.459e-5
-0.654, 5.425e-5
-0.653, 5.391e-5
-0.652, 5.359e-5
-0.651, 5.326e-5
-0.650, 5.295e-5
-0.649, 5.264e-5
-0.648, 5.233e-5
-0.647, 5.201e-5
-0.646, 5.170e-5
-0.645, 5.139e-5
-0.644, 5.108e-5
-0.643, 5.077e-5
-0.642, 5.046e-5
-0.641, 5.015e-5
-0.640, 4.986e-5
-0.639, 4.956e-5
-0.638, 4.927e-5
-0.637, 4.898e-5
-0.636, 4.869e-5
-0.635, 4.841e-5
-0.634, 4.813e-5
-0.633, 4.785e-5
-0.632, 4.757e-5
-0.631, 4.729e-5
-0.630, 4.702e-5
-0.629, 4.675e-5
-0.628, 4.649e-5
-0.627, 4.622e-5
-0.626, 4.596e-5
-0.625, 4.571e-5
-0.624, 4.545e-5
-0.623, 4.519e-5
-0.622, 4.495e-5
-0.621, 4.469e-5
-0.620, 4.444e-5
-0.619, 4.419e-5
-0.618, 4.394e-5
-0.617, 4.370e-5
-0.616, 4.345e-5
-0.615, 4.320e-5
-0.614, 4.296e-5
-0.613, 4.272e-5
-0.612, 4.248e-5
-0.611, 4.224e-5
-0.610, 4.202e-5
-0.609, 4.178e-5
-0.608, 4.156e-5
-0.607, 4.134e-5
-0.606, 4.111e-5
-0.605, 4.090e-5
-0.604, 4.069e-5
-0.603, 4.047e-5
-0.602, 4.025e-5
-0.601, 4.003e-5
-0.600, 3.982e-5
-0.599, 3.960e-5
-0.598, 3.939e-5
-0.597, 3.918e-5
-0.596, 3.896e-5
-0.595, 3.875e-5
-0.594, 3.854e-5
-0.593, 3.834e-5
-0.592, 3.814e-5
-0.591, 3.793e-5
-0.590, 3.773e-5
-0.589, 3.753e-5
-0.588, 3.734e-5
-0.587, 3.715e-5
-0.586, 3.696e-5
-0.585, 3.678e-5
-0.584, 3.658e-5
-0.583, 3.639e-5
-0.582, 3.621e-5
-0.581, 3.601e-5
-0.580, 3.583e-5
-0.579, 3.564e-5
-0.578, 3.545e-5
-0.577, 3.527e-5
-0.576, 3.509e-5
-0.575, 3.491e-5
-0.574, 3.474e-5
-0.573, 3.456e-5
-0.572, 3.439e-5
-0.571, 3.420e-5
-0.570, 3.403e-5
-0.569, 3.385e-5
-0.568, 3.368e-5
-0.567, 3.351e-5
-0.566, 3.334e-5
-0.565, 3.318e-5
-0.564, 3.301e-5
-0.563, 3.286e-5
-0.562, 3.269e-5
-0.561, 3.253e-5
-0.560, 3.237e-5
-0.559, 3.221e-5
-0.558, 3.204e-5
-0.557, 3.189e-5
-0.556, 3.172e-5
-0.555, 3.157e-5
-0.554, 3.142e-5
-0.553, 3.126e-5
-0.552, 3.111e-5
-0.551, 3.095e-5
-0.550, 3.080e-5
-0.549, 3.064e-5
-0.548, 3.049e-5
-0.547, 3.035e-5
-0.546, 3.020e-5
-0.545, 3.005e-5
-0.544, 2.991e-5
-0.543, 2.977e-5
-0.542, 2.963e-5
-0.541, 2.948e-5
-0.540, 2.935e-5
-0.539, 2.920e-5
-0.538, 2.906e-5
-0.537, 2.892e-5
-0.536, 2.877e-5
-0.535, 2.864e-5
-0.534, 2.850e-5
-0.533, 2.837e-5
-0.532, 2.824e-5
-0.531, 2.811e-5
-0.530, 2.798e-5
-0.529, 2.784e-5
-0.528, 2.771e-5
-0.527, 2.758e-5
-0.526, 2.744e-5
-0.525, 2.731e-5
-0.524, 2.718e-5
-0.523, 2.706e-5
-0.522, 2.693e-5
-0.521, 2.680e-5
-0.520, 2.668e-5
-0.519, 2.655e-5
-0.518, 2.642e-5
-0.517, 2.630e-5
-0.516, 2.618e-5
-0.515, 2.606e-5
-0.514, 2.594e-5
-0.513, 2.583e-5
-0.512, 2.572e-5
-0.511, 2.560e-5
-0.510, 2.548e-5
-0.509, 2.536e-5
-0.508, 2.525e-5
-0.507, 2.513e-5
-0.506, 2.500e-5
-0.505, 2.489e-5
-0.504, 2.477e-5
-0.503, 2.465e-5
-0.502, 2.455e-5
-0.501, 2.443e-5
-0.500, 2.430e-5
-0.501, 2.412e-5
-0.502, 2.398e-5
-0.503, 2.385e-5
-0.504, 2.371e-5
-0.505, 2.359e-5
-0.506, 2.346e-5
-0.507, 2.334e-5
-0.508, 2.323e-5
-0.509, 2.311e-5
-0.510, 2.300e-5
-0.511, 2.288e-5
-0.512, 2.277e-5
-0.513, 2.266e-5
-0.514, 2.253e-5
-0.515, 2.242e-5
-0.516, 2.231e-5
-0.517, 2.220e-5
-0.518, 2.209e-5
-0.519, 2.198e-5
-0.520, 2.188e-5
-0.521, 2.177e-5
-0.522, 2.167e-5
-0.523, 2.156e-5
-0.524, 2.145e-5
-0.525, 2.135e-5
-0.526, 2.125e-5
-0.527, 2.115e-5
-0.528, 2.105e-5
-0.529, 2.095e-5
-0.530, 2.085e-5
-0.531, 2.076e-5
-0.532, 2.067e-5
-0.533, 2.057e-5
-0.534, 2.047e-5
-0.535, 2.038e-5
-0.536, 2.028e-5
-0.537, 2.018e-5
-0.538, 2.008e-5
-0.539, 1.998e-5
-0.540, 1.989e-5
-0.541, 1.979e-5
-0.542, 1.970e-5
-0.543, 1.960e-5
-0.544, 1.950e-5
-0.545, 1.942e-5
-0.546, 1.932e-5
-0.547, 1.924e-5
-0.548, 1.915e-5
-0.549, 1.906e-5
-0.550, 1.898e-5
-0.551, 1.889e-5
-0.552, 1.881e-5
-0.553, 1.872e-5
-0.554, 1.863e-5
-0.555, 1.855e-5
-0.556, 1.846e-5
-0.557, 1.837e-5
-0.558, 1.829e-5
-0.559, 1.820e-5
-0.560, 1.812e-5
-0.561, 1.803e-5
-0.562, 1.795e-5
-0.563, 1.786e-5
-0.564, 1.778e-5
-0.565, 1.770e-5
-0.566, 1.762e-5
-0.567, 1.754e-5
-0.568, 1.746e-5
-0.569, 1.737e-5
-0.570, 1.730e-5
-0.571, 1.722e-5
-0.572, 1.715e-5
-0.573, 1.707e-5
-0.574, 1.700e-5
-0.575, 1.692e-5
-0.576, 1.684e-5
-0.577, 1.676e-5
-0.578, 1.669e-5
-0.579, 1.660e-5
-0.580, 1.653e-5
-0.581, 1.645e-5
-0.582, 1.637e-5
-0.583, 1.630e-5
-0.584, 1.622e-5
-0.585, 1.614e-5
-0.586, 1.607e-5
-0.587, 1.600e-5
-0.588, 1.592e-5
-0.589, 1.585e-5
-0.590, 1.579e-5
-0.591, 1.571e-5
-0.592, 1.564e-5
-0.593, 1.558e-5
-0.594, 1.550e-5
-0.595, 1.543e-5
-0.596, 1.536e-5
-0.597, 1.529e-5
-0.598, 1.522e-5
-0.599, 1.514e-5
-0.600, 1.508e-5
-0.601, 1.500e-5
-0.602, 1.493e-5
-0.603, 1.487e-5
-0.604, 1.480e-5
-0.605, 1.473e-5
-0.606, 1.466e-5
-0.607, 1.459e-5
-0.608, 1.453e-5
-0.609, 1.446e-5
-0.610, 1.440e-5
-0.611, 1.433e-5
-0.612, 1.426e-5
-0.613, 1.420e-5
-0.614, 1.413e-5
-0.615, 1.407e-5
-0.616, 1.400e-5
-0.617, 1.393e-5
-0.618, 1.387e-5
-0.619, 1.380e-5
-0.620, 1.374e-5
-0.621, 1.368e-5
-0.622, 1.362e-5
-0.623, 1.356e-5
-0.624, 1.349e-5
-0.625, 1.343e-5
-0.626, 1.336e-5
-0.627, 1.330e-5
-0.628, 1.324e-5
-0.629, 1.317e-5
-0.630, 1.311e-5
-0.631, 1.305e-5
-0.632, 1.298e-5
-0.633, 1.293e-5
-0.634, 1.287e-5
-0.635, 1.281e-5
-0.636, 1.275e-5
-0.637, 1.269e-5
-0.638, 1.263e-5
-0.639, 1.256e-5
-0.640, 1.251e-5
-0.641, 1.245e-5
-0.642, 1.239e-5
-0.643, 1.233e-5
-0.644, 1.226e-5
-0.645, 1.221e-5
-0.646, 1.215e-5
-0.647, 1.209e-5
-0.648, 1.203e-5
-0.649, 1.197e-5
-0.650, 1.192e-5
-0.651, 1.186e-5
-0.652, 1.179e-5
-0.653, 1.174e-5
-0.654, 1.168e-5
-0.655, 1.163e-5
-0.656, 1.157e-5
-0.657, 1.151e-5
-0.658, 1.146e-5
-0.659, 1.140e-5
-0.660, 1.134e-5
-0.661, 1.128e-5
-0.662, 1.123e-5
-0.663, 1.117e-5
-0.664, 1.111e-5
-0.665, 1.106e-5
-0.666, 1.101e-5
-0.667, 1.095e-5
-0.668, 1.090e-5
-0.669, 1.084e-5
-0.670, 1.078e-5
-0.671, 1.072e-5
-0.672, 1.067e-5
-0.673, 1.060e-5
-0.674, 1.054e-5
-0.675, 1.049e-5
-0.676, 1.043e-5
-0.677, 1.038e-5
-0.678, 1.032e-5
-0.679, 1.026e-5
-0.680, 1.021e-5
-0.681, 1.015e-5
-0.682, 1.009e-5
-0.683, 1.004e-5
-0.684, 9.980e-6
-0.685, 9.926e-6
-0.686, 9.866e-6
-0.687, 9.814e-6
-0.688, 9.760e-6
-0.689, 9.697e-6
-0.690, 9.636e-6
-0.691, 9.575e-6
-0.692, 9.518e-6
-0.693, 9.454e-6
-0.694, 9.387e-6
-0.695, 9.330e-6
-0.696, 9.263e-6
-0.697, 9.201e-6
-0.698, 9.140e-6
-0.699, 9.078e-6
-0.700, 9.019e-6
-0.701, 8.953e-6
-0.702, 8.886e-6
-0.703, 8.824e-6
-0.704, 8.755e-6
-0.705, 8.693e-6
-0.706, 8.621e-6
-0.707, 8.558e-6
-0.708, 8.491e-6
-0.709, 8.419e-6
-0.710, 8.352e-6
-0.711, 8.279e-6
-0.712, 8.201e-6
-0.713, 8.129e-6
-0.714, 8.055e-6
-0.715, 7.980e-6
-0.716, 7.898e-6
-0.717, 7.818e-6
-0.718, 7.740e-6
-0.719, 7.656e-6
-0.720, 7.584e-6
-0.721, 7.500e-6
-0.722, 7.410e-6
-0.723, 7.328e-6
-0.724, 7.240e-6
-0.725, 7.148e-6
-0.726, 7.064e-6
-0.727, 6.974e-6
-0.728, 6.881e-6
-0.729, 6.786e-6
-0.730, 6.688e-6
-0.731, 6.594e-6
-0.732, 6.491e-6
-0.733, 6.386e-6
-0.734, 6.275e-6
-0.735, 6.163e-6
-0.736, 6.055e-6
-0.737, 5.942e-6
-0.738, 5.830e-6
-0.739, 5.707e-6
-0.740, 5.591e-6
-0.741, 5.462e-6
-0.742, 5.342e-6
-0.743, 5.220e-6
-0.744, 5.082e-6
-0.745, 4.943e-6
-0.746, 4.806e-6
-0.747, 4.662e-6
-0.748, 4.510e-6
-0.749, 4.358e-6
-0.750, 4.205e-6
-0.751, 4.043e-6
-0.752, 3.871e-6
-0.753, 3.707e-6
-0.754, 3.524e-6
-0.755, 3.344e-6
-0.756, 3.162e-6
-0.757, 2.965e-6
-0.758, 2.774e-6
-0.759, 2.576e-6
-0.760, 2.369e-6
-0.761, 2.162e-6
-0.762, 1.945e-6
-0.763, 1.724e-6
-0.764, 1.495e-6
-0.765, 1.259e-6
-0.766, 1.016e-6
-0.767, 7.522e-7
-0.768, 4.690e-7
-0.769, 2.117e-7
-0.770, -6.931e-8
-0.771, -3.404e-7
-0.772, -6.338e-7
-0.773, -9.367e-7
-0.774, -1.235e-6
-0.775, -1.556e-6
-0.776, -1.876e-6
-0.777, -2.214e-6
-0.778, -2.562e-6
-0.779, -2.928e-6
-0.780, -3.306e-6
-0.781, -3.686e-6
-0.782, -4.084e-6
-0.783, -4.494e-6
-0.784, -4.916e-6
-0.785, -5.338e-6
-0.786, -5.761e-6
-0.787, -6.233e-6
-0.788, -6.692e-6
-0.789, -7.185e-6
-0.790, -7.678e-6
-0.791, -8.162e-6
-0.792, -8.712e-6
-0.793, -9.243e-6
-0.794, -9.737e-6
-0.795, -1.033e-5
-0.796, -1.092e-5
-0.797, -1.153e-5
-0.798, -1.214e-5
-0.799, -1.280e-5
-0.800, -1.346e-5
-0.801, -1.411e-5
-0.802, -1.485e-5
-0.803, -1.553e-5
-0.804, -1.625e-5
-0.805, -1.702e-5
-0.806, -1.777e-5
-0.807, -1.860e-5
-0.808, -1.940e-5
-0.809, -2.024e-5
-0.810, -2.111e-5
-0.811, -2.196e-5
-0.812, -2.287e-5
-0.813, -2.377e-5
-0.814, -2.470e-5
-0.815, -2.571e-5
-0.816, -2.666e-5
-0.817, -2.770e-5
-0.818, -2.875e-5
-0.819, -2.968e-5
-0.820, -3.063e-5
-0.821, -3.177e-5
-0.822, -3.294e-5
-0.823, -3.409e-5
-0.824, -3.529e-5
-0.825, -3.653e-5
-0.826, -3.773e-5
-0.827, -3.902e-5
-0.828, -4.030e-5
-0.829, -4.161e-5
-0.830, -4.297e-5
-0.831, -4.435e-5
-0.832, -4.580e-5
-0.833, -4.721e-5
-0.834, -4.866e-5
-0.835, -5.017e-5
-0.836, -5.164e-5
-0.837, -5.319e-5
-0.838, -5.468e-5
-0.839, -5.628e-5
-0.840, -5.791e-5
-0.841, -5.956e-5
-0.842, -6.121e-5
-0.843, -6.289e-5
-0.844, -6.460e-5
-0.845, -6.625e-5
-0.846, -6.797e-5
-0.847, -6.984e-5
-0.848, -7.166e-5
-0.849, -7.347e-5
-0.850, -7.537e-5
-0.851, -7.729e-5
-0.852, -7.920e-5
-0.853, -8.120e-5
-0.854, -8.320e-5
-0.855, -8.520e-5
-0.856, -8.718e-5
-0.857, -8.930e-5
-0.858, -9.139e-5
-0.859, -9.349e-5
-0.860, -9.567e-5
-0.861, -9.780e-5
-0.862, -9.997e-5
-0.863, -1.022e-4
-0.864, -1.044e-4
-0.865, -1.066e-4
-0.866, -1.089e-4
-0.867, -1.112e-4
-0.868, -1.135e-4
-0.869, -1.159e-4
-0.870, -1.183e-4
-0.871, -1.207e-4
-0.872, -1.232e-4
-0.873, -1.255e-4
-0.874, -1.279e-4
-0.875, -1.304e-4
-0.876, -1.329e-4
-0.877, -1.353e-4
-0.878, -1.378e-4
-0.879, -1.403e-4
-0.880, -1.429e-4
-0.881, -1.454e-4
-0.882, -1.480e-4
-0.883, -1.506e-4
-0.884, -1.532e-4
-0.885, -1.558e-4
-0.886, -1.584e-4
-0.887, -1.611e-4
-0.888, -1.637e-4
-0.889, -1.663e-4
-0.890, -1.690e-4
-0.891, -1.717e-4
-0.892, -1.744e-4
-0.893, -1.771e-4
-0.894, -1.798e-4
-0.895, -1.825e-4
-0.896, -1.851e-4
-0.897, -1.878e-4
-0.898, -1.905e-4
-0.899, -1.932e-4
-0.900, -1.960e-4
-0.901, -1.987e-4
-0.902, -2.014e-4
-0.903, -2.042e-4
-0.904, -2.070e-4
-0.905, -2.097e-4
-0.906, -2.125e-4
-0.907, -2.152e-4
-0.908, -2.180e-4
-0.909, -2.208e-4
-0.910, -2.236e-4
-0.911, -2.263e-4
-0.912, -2.291e-4
-0.913, -2.318e-4
-0.914, -2.346e-4
-0.915, -2.373e-4
-0.916, -2.400e-4
-0.917, -2.427e-4
-0.918, -2.454e-4
-0.919, -2.481e-4
-0.920, -2.508e-4
-0.921, -2.535e-4
-0.922, -2.563e-4
-0.923, -2.590e-4
-0.924, -2.617e-4
-0.925, -2.643e-4
-0.926, -2.669e-4
-0.927, -2.696e-4
-0.928, -2.721e-4
-0.929, -2.747e-4
-0.930, -2.773e-4
-0.931, -2.798e-4
-0.932, -2.823e-4
-0.933, -2.848e-4
-0.934, -2.873e-4
-0.935, -2.898e-4
-0.936, -2.923e-4
-0.937, -2.947e-4
-0.938, -2.970e-4
-0.939, -2.994e-4
-0.940, -3.017e-4
-0.941, -3.040e-4
-0.942, -3.063e-4
-0.943, -3.085e-4
-0.944, -3.107e-4
-0.945, -3.129e-4
-0.946, -3.150e-4
-0.947, -3.171e-4
-0.948, -3.190e-4
-0.949, -3.210e-4
-0.950, -3.231e-4
-0.951, -3.250e-4
-0.952, -3.269e-4
-0.953, -3.288e-4
-0.954, -3.306e-4
-0.955, -3.324e-4
-0.956, -3.341e-4
-0.957, -3.358e-4
-0.958, -3.375e-4
-0.959, -3.391e-4
-0.960, -3.407e-4
-0.961, -3.421e-4
-0.962, -3.436e-4
-0.963, -3.449e-4
-0.964, -3.462e-4
-0.965, -3.475e-4
-0.966, -3.487e-4
-0.967, -3.498e-4
-0.968, -3.509e-4
-0.969, -3.520e-4
-0.970, -3.529e-4
-0.971, -3.538e-4
-0.972, -3.547e-4
-0.973, -3.556e-4
-0.974, -3.563e-4
-0.975, -3.570e-4
-0.976, -3.575e-4
-0.977, -3.580e-4
-0.978, -3.584e-4
-0.979, -3.587e-4
-0.980, -3.589e-4
-0.981, -3.591e-4
-0.982, -3.592e-4
-0.983, -3.592e-4
-0.984, -3.592e-4
-0.985, -3.590e-4
-0.986, -3.588e-4
-0.987, -3.586e-4
-0.988, -3.582e-4
-0.989, -3.578e-4
-0.990, -3.572e-4
-0.991, -3.566e-4
-0.992, -3.559e-4
-0.993, -3.551e-4
-0.994, -3.543e-4
-0.995, -3.534e-4
-0.996, -3.523e-4
-0.997, -3.513e-4
-0.998, -3.502e-4
-0.999, -3.489e-4
-1.000, -3.476e-4
-1.001, -3.463e-4
-1.002, -3.449e-4
-1.003, -3.434e-4
-1.004, -3.419e-4
-1.005, -3.404e-4
-1.006, -3.387e-4
-1.007, -3.371e-4
-1.008, -3.354e-4
-1.009, -3.337e-4
-1.010, -3.319e-4
-1.011, -3.301e-4
-1.012, -3.283e-4
-1.013, -3.264e-4
-1.014, -3.245e-4
-1.015, -3.226e-4
-1.016, -3.206e-4
-1.017, -3.187e-4
-1.018, -3.167e-4
-1.019, -3.147e-4
-1.020, -3.128e-4
-1.021, -3.108e-4
-1.022, -3.088e-4
-1.023, -3.068e-4
-1.024, -3.049e-4
-1.025, -3.030e-4
-1.026, -3.010e-4
-1.027, -2.991e-4
-1.028, -2.971e-4
-1.029, -2.952e-4
-1.030, -2.933e-4
-1.031, -2.914e-4
-1.032, -2.895e-4
-1.033, -2.876e-4
-1.034, -2.858e-4
-1.035, -2.840e-4
-1.036, -2.822e-4
-1.037, -2.805e-4
-1.038, -2.787e-4
-1.039, -2.770e-4
-1.040, -2.753e-4
-1.041, -2.737e-4
-1.042, -2.720e-4
-1.043, -2.704e-4
-1.044, -2.688e-4
-1.045, -2.673e-4
-1.046, -2.657e-4
-1.047, -2.642e-4
-1.048, -2.627e-4
-1.049, -2.612e-4
-1.050, -2.597e-4
-1.051, -2.583e-4
-1.052, -2.569e-4
-1.053, -2.555e-4
-1.054, -2.541e-4
-1.055, -2.528e-4
-1.056, -2.514e-4
-1.057, -2.501e-4
-1.058, -2.489e-4
-1.059, -2.476e-4
-1.060, -2.463e-4
-1.061, -2.451e-4
-1.062, -2.439e-4
-1.063, -2.427e-4
-1.064, -2.416e-4
-1.065, -2.404e-4
-1.066, -2.393e-4
-1.067, -2.382e-4
-1.068, -2.372e-4
-1.069, -2.361e-4
-1.070, -2.350e-4
-1.071, -2.340e-4
-1.072, -2.329e-4
-1.073, -2.319e-4
-1.074, -2.309e-4
-1.075, -2.299e-4
-1.076, -2.289e-4
-1.077, -2.279e-4
-1.078, -2.270e-4
-1.079, -2.261e-4
-1.080, -2.251e-4
-1.081, -2.242e-4
-1.082, -2.233e-4
-1.083, -2.225e-4
-1.084, -2.216e-4
-1.085, -2.208e-4
-1.086, -2.199e-4
-1.087, -2.191e-4
-1.088, -2.183e-4
-1.089, -2.175e-4
-1.090, -2.167e-4
-1.091, -2.159e-4
-1.092, -2.152e-4
-1.093, -2.144e-4
-1.094, -2.136e-4
-1.095, -2.129e-4
-1.096, -2.121e-4
-1.097, -2.114e-4
-1.098, -2.107e-4
-1.099, -2.100e-4
-1.100, -2.093e-4
-1.101, -2.086e-4
-1.102, -2.079e-4
-1.103, -2.072e-4
-1.104, -2.066e-4
-1.105, -2.059e-4
-1.106, -2.053e-4
-1.107, -2.047e-4
-1.108, -2.040e-4
-1.109, -2.034e-4
-1.110, -2.028e-4
-1.111, -2.022e-4
-1.112, -2.017e-4
-1.113, -2.011e-4
-1.114, -2.005e-4
-1.115, -1.999e-4
-1.116, -1.993e-4
-1.117, -1.988e-4
-1.118, -1.982e-4
-1.119, -1.976e-4
-1.120, -1.971e-4
-1.121, -1.965e-4
-1.122, -1.960e-4
-1.123, -1.955e-4
-1.124, -1.949e-4
-1.125, -1.944e-4
-1.126, -1.939e-4
-1.127, -1.935e-4
-1.128, -1.930e-4
-1.129, -1.925e-4
-1.130, -1.921e-4
-1.131, -1.916e-4
-1.132, -1.912e-4
-1.133, -1.907e-4
-1.134, -1.902e-4
-1.135, -1.898e-4
-1.136, -1.893e-4
-1.137, -1.888e-4
-1.138, -1.884e-4
-1.139, -1.879e-4
-1.140, -1.875e-4
-1.141, -1.871e-4
-1.142, -1.867e-4
-1.143, -1.863e-4
-1.144, -1.859e-4
-1.145, -1.854e-4
-1.146, -1.850e-4
-1.147, -1.846e-4
-1.148, -1.842e-4
-1.149, -1.839e-4
-1.150, -1.835e-4
-1.151, -1.831e-4
-1.152, -1.828e-4
-1.153, -1.824e-4
-1.154, -1.820e-4
-1.155, -1.817e-4
-1.156, -1.813e-4
-1.157, -1.810e-4
-1.158, -1.806e-4
-1.159, -1.803e-4
-1.160, -1.799e-4
-1.161, -1.796e-4
-1.162, -1.792e-4
-1.163, -1.789e-4
-1.164, -1.786e-4
-1.165, -1.782e-4
-1.166, -1.779e-4
-1.167, -1.776e-4
-1.168, -1.772e-4
-1.169, -1.769e-4
-1.170, -1.766e-4
-1.171, -1.763e-4
-1.172, -1.760e-4
-1.173, -1.758e-4
-1.174, -1.755e-4
-1.175, -1.752e-4
-1.176, -1.749e-4
-1.177, -1.746e-4
-1.178, -1.743e-4
-1.179, -1.741e-4
-1.180, -1.738e-4
-1.181, -1.735e-4
-1.182, -1.732e-4
-1.183, -1.729e-4
-1.184, -1.726e-4
-1.185, -1.724e-4
-1.186, -1.721e-4
-1.187, -1.718e-4
-1.188, -1.716e-4
-1.189, -1.713e-4
-1.190, -1.711e-4
-1.191, -1.709e-4
-1.192, -1.706e-4
-1.193, -1.704e-4
-1.194, -1.701e-4
-1.195, -1.699e-4
-1.196, -1.697e-4
-1.197, -1.694e-4
-1.198, -1.692e-4
-1.199, -1.690e-4
-1.200, -1.687e-4
-1.199, -1.683e-4
-1.198, -1.679e-4
-1.197, -1.676e-4
-1.196, -1.673e-4
-1.195, -1.670e-4
-1.194, -1.667e-4
-1.193, -1.665e-4
-1.192, -1.662e-4
-1.191, -1.659e-4
-1.190, -1.657e-4
-1.189, -1.654e-4
-1.188, -1.652e-4
-1.187, -1.650e-4
-1.186, -1.648e-4
-1.185, -1.645e-4
-1.184, -1.643e-4
-1.183, -1.641e-4
-1.182, -1.639e-4
-1.181, -1.637e-4
-1.180, -1.635e-4
-1.179, -1.633e-4
-1.178, -1.632e-4
-1.177, -1.629e-4
-1.176, -1.627e-4
-1.175, -1.625e-4
-1.174, -1.624e-4
-1.173, -1.621e-4
-1.172, -1.619e-4
-1.171, -1.617e-4
-1.170, -1.615e-4
-1.169, -1.613e-4
-1.168, -1.612e-4
-1.167, -1.610e-4
-1.166, -1.608e-4
-1.165, -1.607e-4
-1.164, -1.605e-4
-1.163, -1.603e-4
-1.162, -1.602e-4
-1.161, -1.600e-4
-1.160, -1.598e-4
-1.159, -1.596e-4
-1.158, -1.595e-4
-1.157, -1.593e-4
-1.156, -1.591e-4
-1.155, -1.589e-4
-1.154, -1.588e-4
-1.153, -1.586e-4
-1.152, -1.585e-4
-1.151, -1.583e-4
-1.150, -1.582e-4
-1.149, -1.580e-4
-1.148, -1.578e-4
-1.147, -1.577e-4
-1.146, -1.575e-4
-1.145, -1.573e-4
-1.144, -1.572e-4
-1.143, -1.570e-4
-1.142, -1.569e-4
-1.141, -1.567e-4
-1.140, -1.566e-4
-1.139, -1.565e-4
-1.138, -1.563e-4
-1.137, -1.562e-4
-1.136, -1.560e-4
-1.135, -1.559e-4
-1.134, -1.558e-4
-1.133, -1.556e-4
-1.132, -1.555e-4
-1.131, -1.553e-4
-1.130, -1.552e-4
-1.129, -1.550e-4
-1.128, -1.548e-4
-1.127, -1.547e-4
-1.126, -1.545e-4
-1.125, -1.544e-4
-1.124, -1.543e-4
-1.123, -1.541e-4
-1.122, -1.540e-4
-1.121, -1.539e-4
-1.120, -1.537e-4
-1.119, -1.536e-4
-1.118, -1.535e-4
-1.117, -1.533e-4
-1.116, -1.532e-4
-1.115, -1.531e-4
-1.114, -1.530e-4
-1.113, -1.528e-4
-1.112, -1.527e-4
-1.111, -1.526e-4
-1.110, -1.524e-4
-1.109, -1.523e-4
-1.108, -1.521e-4
-1.107, -1.520e-4
-1.106, -1.518e-4
-1.105, -1.517e-4
-1.104, -1.516e-4
-1.103, -1.514e-4
-1.102, -1.513e-4
-1.101, -1.512e-4
-1.100, -1.511e-4
-1.099, -1.509e-4
-1.098, -1.508e-4
-1.097, -1.506e-4
-1.096, -1.505e-4
-1.095, -1.504e-4
-1.094, -1.502e-4
-1.093, -1.501e-4
-1.092, -1.500e-4
-1.091, -1.499e-4
-1.090, -1.498e-4
-1.089, -1.497e-4
-1.088, -1.495e-4
-1.087, -1.493e-4
-1.086, -1.492e-4
-1.085, -1.490e-4
-1.084, -1.489e-4
-1.083, -1.487e-4
-1.082, -1.486e-4
-1.081, -1.484e-4
-1.080, -1.483e-4
-1.079, -1.481e-4
-1.078, -1.480e-4
-1.077, -1.478e-4
-1.076, -1.477e-4
-1.075, -1.476e-4
-1.074, -1.474e-4
-1.073, -1.473e-4
-1.072, -1.472e-4
-1.071, -1.470e-4
-1.070, -1.469e-4
-1.069, -1.467e-4
-1.068, -1.466e-4
-1.067, -1.464e-4
-1.066, -1.462e-4
-1.065, -1.460e-4
-1.064, -1.458e-4
-1.063, -1.456e-4
-1.062, -1.454e-4
-1.061, -1.453e-4
-1.060, -1.451e-4
-1.059, -1.449e-4
-1.058, -1.447e-4
-1.057, -1.445e-4
-1.056, -1.444e-4
-1.055, -1.442e-4
-1.054, -1.440e-4
-1.053, -1.438e-4
-1.052, -1.436e-4
-1.051, -1.434e-4
-1.050, -1.432e-4
-1.049, -1.430e-4
-1.048, -1.428e-4
-1.047, -1.426e-4
-1.046, -1.423e-4
-1.045, -1.421e-4
-1.044, -1.418e-4
-1.043, -1.416e-4
-1.042, -1.413e-4
-1.041, -1.411e-4
-1.040, -1.408e-4
-1.039, -1.405e-4
-1.038, -1.403e-4
-1.037, -1.400e-4
-1.036, -1.397e-4
-1.035, -1.394e-4
-1.034, -1.390e-4
-1.033, -1.387e-4
-1.032, -1.384e-4
-1.031, -1.381e-4
-1.030, -1.378e-4
-1.029, -1.375e-4
-1.028, -1.372e-4
-1.027, -1.368e-4
-1.026, -1.365e-4
-1.025, -1.361e-4
-1.024, -1.356e-4
-1.023, -1.352e-4
-1.022, -1.348e-4
-1.021, -1.343e-4
-1.020, -1.339e-4
-1.019, -1.335e-4
-1.018, -1.330e-4
-1.017, -1.326e-4
-1.016, -1.321e-4
-1.015, -1.316e-4
-1.014, -1.311e-4
-1.013, -1.306e-4
-1.012, -1.300e-4
-1.011, -1.295e-4
-1.010, -1.289e-4
-1.009, -1.283e-4
-1.008, -1.278e-4
-1.007, -1.271e-4
-1.006, -1.265e-4
-1.005, -1.259e-4
-1.004, -1.252e-4
-1.003, -1.246e-4
-1.002, -1.239e-4
-1.001, -1.232e-4
-1.000, -1.224e-4
-0.999, -1.217e-4
-0.998, -1.210e-4
-0.997, -1.202e-4
-0.996, -1.194e-4
-0.995, -1.186e-4
-0.994, -1.177e-4
-0.993, -1.168e-4
-0.992, -1.159e-4
-0.991, -1.150e-4
-0.990, -1.141e-4
-0.989, -1.131e-4
-0.988, -1.122e-4
-0.987, -1.112e-4
-0.986, -1.102e-4
-0.985, -1.091e-4
-0.984, -1.081e-4
-0.983, -1.070e-4
-0.982, -1.059e-4
-0.981, -1.048e-4
-0.980, -1.036e-4
-0.979, -1.024e-4
-0.978, -1.012e-4
-0.977, -9.996e-5
-0.976, -9.872e-5
-0.975, -9.745e-5
-0.974, -9.610e-5
-0.973, -9.473e-5
-0.972, -9.326e-5
-0.971, -9.187e-5
-0.970, -9.051e-5
-0.969, -8.907e-5
-0.968, -8.762e-5
-0.967, -8.613e-5
-0.966, -8.466e-5
-0.965, -8.315e-5
-0.964, -8.157e-5
-0.963, -8.003e-5
-0.962, -7.843e-5
-0.961, -7.675e-5
-0.960, -7.509e-5
-0.959, -7.333e-5
-0.958, -7.161e-5
-0.957, -6.988e-5
-0.956, -6.810e-5
-0.955, -6.634e-5
-0.954, -6.452e-5
-0.953, -6.272e-5
-0.952, -6.083e-5
-0.951, -5.889e-5
-0.950, -5.699e-5
-0.949, -5.505e-5
-0.948, -5.305e-5
-0.947, -5.115e-5
-0.946, -4.920e-5
-0.945, -4.714e-5
-0.944, -4.506e-5
-0.943, -4.302e-5
-0.942, -4.085e-5
-0.941, -3.875e-5
-0.940, -3.665e-5
-0.939, -3.444e-5
-0.938, -3.225e-5
-0.937, -3.004e-5
-0.936, -2.781e-5
-0.935, -2.555e-5
-0.934, -2.321e-5
-0.933, -2.096e-5
-0.932, -1.860e-5
-0.931, -1.629e-5
-0.930, -1.393e-5
-0.929, -1.149e-5
-0.928, -9.150e-6
-0.927, -6.751e-6
-0.926, -4.313e-6
-0.925, -1.908e-6
-0.924, 5.721e-7
-0.923, 3.035e-6
-0.922, 5.545e-6
-0.921, 8.176e-6
-0.920, 1.069e-5
-0.919, 1.325e-5
-0.918, 1.571e-5
-0.917, 1.826e-5
-0.916, 2.083e-5
-0.915, 2.336e-5
-0.914, 2.594e-5
-0.913, 2.854e-5
-0.912, 3.118e-5
-0.911, 3.378e-5
-0.910, 3.643e-5
-0.909, 3.910e-5
-0.908, 4.172e-5
-0.907, 4.440e-5
-0.906, 4.700e-5
-0.905, 4.960e-5
-0.904, 5.229e-5
-0.903, 5.493e-5
-0.902, 5.758e-5
-0.901, 6.021e-5
-0.900, 6.287e-5
-0.899, 6.555e-5
-0.898, 6.819e-5
-0.897, 7.090e-5
-0.896, 7.343e-5
-0.895, 7.597e-5
-0.894, 7.867e-5
-0.893, 8.129e-5
-0.892, 8.396e-5
-0.891, 8.661e-5
-0.890, 8.927e-5
-0.889, 9.194e-5
-0.888, 9.455e-5
-0.887, 9.721e-5
-0.886, 9.982e-5
-0.885, 1.024e-4
-0.884, 1.051e-4
-0.883, 1.077e-4
-0.882, 1.102e-4
-0.881, 1.128e-4
-0.880, 1.153e-4
-0.879, 1.179e-4
-0.878, 1.204e-4
-0.877, 1.229e-4
-0.876, 1.254e-4
-0.875, 1.279e-4
-0.874, 1.304e-4
-0.873, 1.327e-4
-0.872, 1.352e-4
-0.871, 1.376e-4
-0.870, 1.401e-4
-0.869, 1.425e-4
-0.868, 1.449e-4
-0.867, 1.472e-4
-0.866, 1.494e-4
-0.865, 1.517e-4
-0.864, 1.539e-4
-0.863, 1.560e-4
-0.862, 1.582e-4
-0.861, 1.604e-4
-0.860, 1.624e-4
-0.859, 1.646e-4
-0.858, 1.666e-4
-0.857, 1.686e-4
-0.856, 1.706e-4
-0.855, 1.725e-4
-0.854, 1.744e-4
-0.853, 1.762e-4
-0.852, 1.781e-4
-0.851, 1.798e-4
-0.850, 1.815e-4
-0.849, 1.832e-4
-0.848, 1.848e-4
-0.847, 1.864e-4
-0.846, 1.880e-4
-0.845, 1.894e-4
-0.844, 1.908e-4
-0.843, 1.921e-4
-0.842, 1.935e-4
-0.841, 1.947e-4
-0.840, 1.960e-4
-0.839, 1.972e-4
-0.838, 1.982e-4
-0.837, 1.993e-4
-0.836, 2.003e-4
-0.835, 2.012e-4
-0.834, 2.021e-4
-0.833, 2.029e-4
-0.832, 2.037e-4
-0.831, 2.044e-4
-0.830, 2.050e-4
-0.829, 2.056e-4
-0.828, 2.060e-4
-0.827, 2.065e-4
-0.826, 2.068e-4
-0.825, 2.070e-4
-0.824, 2.073e-4
-0.823, 2.074e-4
-0.822, 2.074e-4
-0.821, 2.074e-4
-0.820, 2.073e-4
-0.819, 2.069e-4
-0.818, 2.065e-4
-0.817, 2.063e-4
-0.816, 2.060e-4
-0.815, 2.055e-4
-0.814, 2.051e-4
-0.813, 2.045e-4
-0.812, 2.038e-4
-0.811, 2.032e-4
-0.810, 2.024e-4
-0.809, 2.016e-4
-0.808, 2.006e-4
-0.807, 1.997e-4
-0.806, 1.987e-4
-0.805, 1.975e-4
-0.804, 1.964e-4
-0.803, 1.952e-4
-0.802, 1.940e-4
-0.801, 1.927e-4
-0.800, 1.913e-4
-0.799, 1.899e-4
-0.798, 1.885e-4
-0.797, 1.871e-4
-0.796, 1.856e-4
-0.795, 1.840e-4
-0.794, 1.825e-4
-0.793, 1.808e-4
-0.792, 1.792e-4
-0.791, 1.776e-4
-0.790, 1.760e-4
-0.789, 1.743e-4
-0.788, 1.727e-4
-0.787, 1.710e-4
-0.786, 1.693e-4
-0.785, 1.676e-4
-0.784, 1.659e-4
-0.783, 1.642e-4
-0.782, 1.626e-4
-0.781, 1.609e-4
-0.780, 1.592e-4
-0.779, 1.576e-4
-0.778, 1.559e-4
-0.777, 1.543e-4
-0.776, 1.526e-4
-0.775, 1.510e-4
-0.774, 1.494e-4
-0.773, 1.478e-4
-0.772, 1.463e-4
-0.771, 1.447e-4
-0.770, 1.431e-4
-0.769, 1.416e-4
-0.768, 1.401e-4
-0.767, 1.387e-4
-0.766, 1.372e-4
-0.765, 1.357e-4
-0.764, 1.343e-4
-0.763, 1.329e-4
-0.762, 1.315e-4
-0.761, 1.301e-4
-0.760, 1.288e-4
-0.759, 1.274e-4
-0.758, 1.261e-4
-0.757, 1.248e-4
-0.756, 1.235e-4
-0.755, 1.223e-4
-0.754, 1.210e-4
-0.753, 1.198e-4
-0.752, 1.186e-4
-0.751, 1.175e-4
-0.750, 1.163e-4
-0.749, 1.152e-4
-0.748, 1.140e-4
-0.747, 1.129e-4
-0.746, 1.118e-4
-0.745, 1.107e-4
-0.744, 1.097e-4
-0.743, 1.086e-4
-0.742, 1.076e-4
-0.741, 1.066e-4
-0.740, 1.056e-4
-0.739, 1.046e-4
-0.738, 1.036e-4
-0.737, 1.027e-4
-0.736, 1.017e-4
-0.735, 1.008e-4
-0.734, 9.987e-5
-0.733, 9.898e-5
-0.732, 9.810e-5
-0.731, 9.724e-5
-0.730, 9.638e-5
-0.729, 9.554e-5
-0.728, 9.470e-5
-0.727, 9.387e-5
-0.726, 9.305e-5
-0.725, 9.224e-5
-0.724, 9.145e-5
-0.723, 9.067e-5
-0.722, 8.990e-5
-0.721, 8.914e-5
-0.720, 8.840e-5
-0.719, 8.767e-5
-0.718, 8.695e-5
-0.717, 8.623e-5
-0.716, 8.552e-5
-0.715, 8.483e-5
-0.714, 8.414e-5
-0.713, 8.346e-5
-0.712, 8.279e-5
-0.711, 8.213e-5
-0.710, 8.147e-5
-0.709, 8.083e-5
-0.708, 8.020e-5
-0.707, 7.958e-5
-0.706, 7.896e-5
-0.705, 7.835e-5
-0.704, 7.775e-5
-0.703, 7.716e-5
-0.702, 7.658e-5
-0.701, 7.599e-5
-0.700, 7.542e-5
-0.699, 7.485e-5
-0.698, 7.428e-5
-0.697, 7.372e-5
-0.696, 7.317e-5
-0.695, 7.262e-5
-0.694, 7.208e-5
-0.693, 7.156e-5
-0.692, 7.104e-5
-0.691, 7.052e-5
-0.690, 7.003e-5
-0.689, 6.954e-5
-0.688, 6.906e-5
-0.687, 6.857e-5
-0.686, 6.809e-5
-0.685, 6.762e-5
-0.684, 6.713e-5
-0.683, 6.666e-5
-0.682, 6.619e-5
-0.681, 6.573e-5
-0.680, 6.528e-5
-0.679, 6.482e-5
-0.678, 6.438e-5
-0.677, 6.395e-5
-0.676, 6.351e-5
-0.675, 6.308e-5
-0.674, 6.265e-5
-0.673, 6.223e-5
-0.672, 6.181e-5
-0.671, 6.140e-5
-0.670, 6.100e-5
-0.669, 6.060e-5
-0.668, 6.021e-5
-0.667, 5.983e-5
-0.666, 5.943e-5
-0.665, 5.906e-5
-0.664, 5.867e-5
-0.663, 5.829e-5
-0.662, 5.792e-5
-0.661, 5.755e-5
-0.660, 5.719e-5
-0.659, 5.682e-5
-0.658, 5.647e-5
-0.657, 5.612e-5
-0.656, 5.576e-5
-0.655, 5.541e-5
-0.654, 5.506e-5
-0.653, 5.471e-5
-0.652, 5.437e-5
-0.651, 5.402e-5
-0.650, 5.369e-5
-0.649, 5.336e-5
-0.648, 5.303e-5
-0.647, 5.272e-5
-0.646, 5.241e-5
-0.645, 5.210e-5
-0.644, 5.179e-5
-0.643, 5.148e-5
-0.642, 5.118e-5
-0.641, 5.087e-5
-0.640, 5.057e-5
-0.639, 5.026e-5
-0.638, 4.997e-5
-0.637, 4.967e-5
-0.636, 4.938e-5
-0.635, 4.909e-5
-0.634, 4.880e-5
-0.633, 4.851e-5
-0.632, 4.822e-5
-0.631, 4.794e-5
-0.630, 4.766e-5
-0.629, 4.738e-5
-0.628, 4.711e-5
-0.627, 4.685e-5
-0.626, 4.658e-5
-0.625, 4.632e-5
-0.624, 4.606e-5
-0.623, 4.580e-5
-0.622, 4.554e-5
-0.621, 4.528e-5
-0.620, 4.503e-5
-0.619, 4.478e-5
-0.618, 4.453e-5
-0.617, 4.429e-5
-0.616, 4.404e-5
-0.615, 4.380e-5
-0.614, 4.356e-5
-0.613, 4.331e-5
-0.612, 4.307e-5
-0.611, 4.283e-5
-0.610, 4.259e-5
-0.609, 4.235e-5
-0.608, 4.212e-5
-0.607, 4.188e-5
-0.606, 4.165e-5
-0.605, 4.143e-5
-0.604, 4.121e-5
-0.603, 4.100e-5
-0.602, 4.078e-5
-0.601, 4.056e-5
-0.600, 4.034e-5
-0.599, 4.013e-5
-0.598, 3.991e-5
-0.597, 3.970e-5
-0.596, 3.950e-5
-0.595, 3.929e-5
-0.594, 3.908e-5
-0.593, 3.888e-5
-0.592, 3.867e-5
-0.591, 3.846e-5
-0.590, 3.826e-5
-0.589, 3.804e-5
-0.588, 3.784e-5
-0.587, 3.764e-5
-0.586, 3.744e-5
-0.585, 3.725e-5
-0.584, 3.706e-5
-0.583, 3.688e-5
-0.582, 3.669e-5
-0.581, 3.650e-5
-0.580, 3.632e-5
-0.579, 3.613e-5
-0.578, 3.594e-5
-0.577, 3.576e-5
-0.576, 3.557e-5
-0.575, 3.540e-5
-0.574, 3.522e-5
-0.573, 3.504e-5
-0.572, 3.486e-5
-0.571, 3.468e-5
-0.570, 3.451e-5
-0.569, 3.433e-5
-0.568, 3.415e-5
-0.567, 3.398e-5
-0.566, 3.381e-5
-0.565, 3.364e-5
-0.564, 3.347e-5
-0.563, 3.331e-5
-0.562, 3.314e-5
-0.561, 3.298e-5
-0.560, 3.282e-5
-0.559, 3.265e-5
-0.558, 3.249e-5
-0.557, 3.234e-5
-0.556, 3.217e-5
-0.555, 3.202e-5
-0.554, 3.187e-5
-0.553, 3.172e-5
-0.552, 3.157e-5
-0.551, 3.141e-5
-0.550, 3.126e-5
-0.549, 3.110e-5
-0.548, 3.095e-5
-0.547, 3.080e-5
-0.546, 3.064e-5
-0.545, 3.050e-5
-0.544, 3.035e-5
-0.543, 3.020e-5
-0.542, 3.006e-5
-0.541, 2.991e-5
-0.540, 2.977e-5
-0.539, 2.962e-5
-0.538, 2.948e-5
-0.537, 2.934e-5
-0.536, 2.920e-5
-0.535, 2.907e-5
-0.534, 2.893e-5
-0.533, 2.880e-5
-0.532, 2.867e-5
-0.531, 2.854e-5
-0.530, 2.841e-5
-0.529, 2.827e-5
-0.528, 2.814e-5
-0.527, 2.801e-5
-0.526, 2.787e-5
-0.525, 2.774e-5
-0.524, 2.761e-5
-0.523, 2.748e-5
-0.522, 2.735e-5
-0.521, 2.722e-5
-0.520, 2.710e-5
-0.519, 2.697e-5
-0.518, 2.684e-5
-0.517, 2.672e-5
-0.516, 2.659e-5
-0.515, 2.647e-5
-0.514, 2.634e-5
-0.513, 2.623e-5
-0.512, 2.611e-5
-0.511, 2.599e-5
-0.510, 2.588e-5
-0.509, 2.577e-5
-0.508, 2.565e-5
-0.507, 2.554e-5
-0.506, 2.542e-5
-0.505, 2.531e-5
-0.504, 2.519e-5
-0.503, 2.508e-5
-0.502, 2.496e-5
-0.501, 2.484e-5
-0.500, 2.471e-5
-0.501, 2.453e-5
-0.502, 2.438e-5
-0.503, 2.424e-5
-0.504, 2.411e-5
-0.505, 2.398e-5
-0.506, 2.386e-5
-0.507, 2.374e-5
-0.508, 2.362e-5
-0.509, 2.350e-5
-0.510, 2.339e-5
-0.511, 2.327e-5
-0.512, 2.316e-5
-0.513, 2.305e-5
-0.514, 2.293e-5
-0.515, 2.282e-5
-0.516, 2.270e-5
-0.517, 2.260e-5
-0.518, 2.249e-5
-0.519, 2.238e-5
-0.520, 2.227e-5
-0.521, 2.217e-5
-0.522, 2.206e-5
-0.523, 2.196e-5
-0.524, 2.185e-5
-0.525, 2.174e-5
-0.526, 2.163e-5
-0.527, 2.153e-5
-0.528, 2.143e-5
-0.529, 2.133e-5
-0.530, 2.123e-5
-0.531, 2.113e-5
-0.532, 2.104e-5
-0.533, 2.094e-5
-0.534, 2.084e-5
-0.535, 2.075e-5
-0.536, 2.065e-5
-0.537, 2.056e-5
-0.538, 2.047e-5
-0.539, 2.037e-5
-0.540, 2.027e-5
-0.541, 2.018e-5
-0.542, 2.009e-5
-0.543, 1.999e-5
-0.544, 1.990e-5
-0.545, 1.980e-5
-0.546, 1.971e-5
-0.547, 1.962e-5
-0.548, 1.952e-5
-0.549, 1.943e-5
-0.550, 1.934e-5
-0.551, 1.926e-5
-0.552, 1.917e-5
-0.553, 1.909e-5
-0.554, 1.900e-5
-0.555, 1.892e-5
-0.556, 1.882e-5
-0.557, 1.874e-5
-0.558, 1.865e-5
-0.559, 1.856e-5
-0.560, 1.848e-5
-0.561, 1.839e-5
-0.562, 1.831e-5
-0.563, 1.823e-5
-0.564, 1.815e-5
-0.565, 1.807e-5
-0.566, 1.799e-5
-0.567, 1.790e-5
-0.568, 1.782e-5
-0.569, 1.774e-5
-0.570, 1.766e-5
-0.571, 1.758e-5
-0.572, 1.751e-5
-0.573, 1.743e-5
-0.574, 1.735e-5
-0.575, 1.727e-5
-0.576, 1.719e-5
-0.577, 1.711e-5
-0.578, 1.704e-5
-0.579, 1.696e-5
-0.580, 1.688e-5
-0.581, 1.681e-5
-0.582, 1.673e-5
-0.583, 1.666e-5
-0.584, 1.658e-5
-0.585, 1.651e-5
-0.586, 1.643e-5
-0.587, 1.636e-5
-0.588, 1.628e-5
-0.589, 1.621e-5
-0.590, 1.613e-5
-0.591, 1.606e-5
-0.592, 1.598e-5
-0.593, 1.591e-5
-0.594, 1.584e-5
-0.595, 1.578e-5
-0.596, 1.570e-5
-0.597, 1.563e-5
-0.598, 1.557e-5
-0.599, 1.549e-5
-0.600, 1.542e-5
-0.601, 1.535e-5
-0.602, 1.528e-5
-0.603, 1.521e-5
-0.604, 1.513e-5
-0.605, 1.508e-5
-0.606, 1.501e-5
-0.607, 1.494e-5
-0.608, 1.487e-5
-0.609, 1.480e-5
-0.610, 1.474e-5
-0.611, 1.466e-5
-0.612, 1.460e-5
-0.613, 1.453e-5
-0.614, 1.446e-5
-0.615, 1.440e-5
-0.616, 1.434e-5
-0.617, 1.427e-5
-0.618, 1.420e-5
-0.619, 1.414e-5
-0.620, 1.407e-5
-0.621, 1.400e-5
-0.622, 1.394e-5
-0.623, 1.388e-5
-0.624, 1.381e-5
-0.625, 1.376e-5
-0.626, 1.370e-5
-0.627, 1.364e-5
-0.628, 1.358e-5
-0.629, 1.351e-5
-0.630, 1.345e-5
-0.631, 1.339e-5
-0.632, 1.332e-5
-0.633, 1.326e-5
-0.634, 1.319e-5
-0.635, 1.313e-5
-0.636, 1.307e-5
-0.637, 1.301e-5
-0.638, 1.295e-5
-0.639, 1.289e-5
-0.640, 1.283e-5
-0.641, 1.277e-5
-0.642, 1.271e-5
-0.643, 1.265e-5
-0.644, 1.259e-5
-0.645, 1.254e-5
-0.646, 1.248e-5
-0.647, 1.242e-5
-0.648, 1.237e-5
-0.649, 1.230e-5
-0.650, 1.224e-5
-0.651, 1.218e-5
-0.652, 1.212e-5
-0.653, 1.206e-5
-0.654, 1.200e-5
-0.655, 1.195e-5
-0.656, 1.189e-5
-0.657, 1.183e-5
-0.658, 1.177e-5
-0.659, 1.171e-5
-0.660, 1.166e-5
-0.661, 1.160e-5
-0.662, 1.154e-5
-0.663, 1.149e-5
-0.664, 1.143e-5
-0.665, 1.138e-5
-0.666, 1.131e-5
-0.667, 1.126e-5
-0.668, 1.121e-5
-0.669, 1.115e-5
-0.670, 1.109e-5
-0.671, 1.103e-5
-0.672, 1.098e-5
-0.673, 1.092e-5
-0.674, 1.086e-5
-0.675, 1.080e-5
-0.676, 1.074e-5
-0.677, 1.068e-5
-0.678, 1.063e-5
-0.679, 1.056e-5
-0.680, 1.051e-5
-0.681, 1.045e-5
-0.682, 1.039e-5
-0.683, 1.033e-5
-0.684, 1.027e-5
-0.685, 1.022e-5
-0.686, 1.016e-5
-0.687, 1.010e-5
-0.688, 1.004e-5
-0.689, 9.982e-6
-0.690, 9.924e-6
-0.691, 9.863e-6
-0.692, 9.806e-6
-0.693, 9.745e-6
-0.694, 9.677e-6
-0.695, 9.611e-6
-0.696, 9.548e-6
-0.697, 9.485e-6
-0.698, 9.423e-6
-0.699, 9.352e-6
-0.700, 9.293e-6
-0.701, 9.224e-6
-0.702, 9.156e-6
-0.703, 9.091e-6
-0.704, 9.023e-6
-0.705, 8.956e-6
-0.706, 8.881e-6
-0.707, 8.816e-6
-0.708, 8.748e-6
-0.709, 8.670e-6
-0.710, 8.602e-6
-0.711, 8.529e-6
-0.712, 8.454e-6
-0.713, 8.381e-6
-0.714, 8.302e-6
-0.715, 8.223e-6
-0.716, 8.138e-6
-0.717, 8.055e-6
-0.718, 7.977e-6
-0.719, 7.888e-6
-0.720, 7.810e-6
-0.721, 7.723e-6
-0.722, 7.632e-6
-0.723, 7.549e-6
-0.724, 7.455e-6
-0.725, 7.363e-6
-0.726, 7.269e-6
-0.727, 7.170e-6
-0.728, 7.079e-6
-0.729, 6.976e-6
-0.730, 6.875e-6
-0.731, 6.774e-6
-0.732, 6.665e-6
-0.733, 6.566e-6
-0.734, 6.452e-6
-0.735, 6.337e-6
-0.736, 6.219e-6
-0.737, 6.100e-6
-0.738, 5.978e-6
-0.739, 5.859e-6
-0.740, 5.732e-6
-0.741, 5.600e-6
-0.742, 5.469e-6
-0.743, 5.341e-6
-0.744, 5.190e-6
-0.745, 5.044e-6
-0.746, 4.900e-6
-0.747, 4.740e-6
-0.748, 4.588e-6
-0.749, 4.428e-6
-0.750, 4.263e-6
-0.751, 4.099e-6
-0.752, 3.921e-6
-0.753, 3.745e-6
-0.754, 3.556e-6
-0.755, 3.368e-6
-0.756, 3.178e-6
-0.757, 2.968e-6
-0.758, 2.764e-6
-0.759, 2.555e-6
-0.760, 2.331e-6
-0.761, 2.117e-6
-0.762, 1.889e-6
-0.763, 1.656e-6
-0.764, 1.408e-6
-0.765, 1.153e-6
-0.766, 9.020e-7
-0.767, 6.255e-7
-0.768, 3.333e-7
-0.769, 4.825e-8
-0.770, -2.532e-7
-0.771, -5.389e-7
-0.772, -8.385e-7
-0.773, -1.165e-6
-0.774, -1.484e-6
-0.775, -1.813e-6
-0.776, -2.158e-6
-0.777, -2.520e-6
-0.778, -2.878e-6
-0.779, -3.257e-6
-0.780, -3.664e-6
-0.781, -4.069e-6
-0.782, -4.486e-6
-0.783, -4.912e-6
-0.784, -5.344e-6
-0.785, -5.797e-6
-0.786, -6.270e-6
-0.787, -6.757e-6
-0.788, -7.232e-6
-0.789, -7.749e-6
-0.790, -8.273e-6
-0.791, -8.793e-6
-0.792, -9.371e-6
-0.793, -9.918e-6
-0.794, -1.044e-5
-0.795, -1.106e-5
-0.796, -1.168e-5
-0.797, -1.233e-5
-0.798, -1.298e-5
-0.799, -1.365e-5
-0.800, -1.436e-5
-0.801, -1.504e-5
-0.802, -1.580e-5
-0.803, -1.653e-5
-0.804, -1.729e-5
-0.805, -1.809e-5
-0.806, -1.889e-5
-0.807, -1.975e-5
-0.808, -2.059e-5
-0.809, -2.147e-5
-0.810, -2.236e-5
-0.811, -2.327e-5
-0.812, -2.423e-5
-0.813, -2.517e-5
-0.814, -2.614e-5
-0.815, -2.717e-5
-0.816, -2.817e-5
-0.817, -2.923e-5
-0.818, -3.033e-5
-0.819, -3.133e-5
-0.820, -3.230e-5
-0.821, -3.347e-5
-0.822, -3.472e-5
-0.823, -3.592e-5
-0.824, -3.717e-5
-0.825, -3.844e-5
-0.826, -3.969e-5
-0.827, -4.104e-5
-0.828, -4.239e-5
-0.829, -4.375e-5
-0.830, -4.513e-5
-0.831, -4.655e-5
-0.832, -4.802e-5
-0.833, -4.949e-5
-0.834, -5.102e-5
-0.835, -5.254e-5
-0.836, -5.404e-5
-0.837, -5.567e-5
-0.838, -5.725e-5
-0.839, -5.886e-5
-0.840, -6.053e-5
-0.841, -6.220e-5
-0.842, -6.393e-5
-0.843, -6.566e-5
-0.844, -6.743e-5
-0.845, -6.913e-5
-0.846, -7.086e-5
-0.847, -7.276e-5
-0.848, -7.464e-5
-0.849, -7.652e-5
-0.850, -7.849e-5
-0.851, -8.041e-5
-0.852, -8.240e-5
-0.853, -8.440e-5
-0.854, -8.641e-5
-0.855, -8.847e-5
-0.856, -9.054e-5
-0.857, -9.267e-5
-0.858, -9.481e-5
-0.859, -9.695e-5
-0.860, -9.913e-5
-0.861, -1.013e-4
-0.862, -1.035e-4
-0.863, -1.058e-4
-0.864, -1.080e-4
-0.865, -1.102e-4
-0.866, -1.126e-4
-0.867, -1.149e-4
-0.868, -1.173e-4
-0.869, -1.196e-4
-0.870, -1.221e-4
-0.871, -1.246e-4
-0.872, -1.271e-4
-0.873, -1.295e-4
-0.874, -1.319e-4
-0.875, -1.344e-4
-0.876, -1.369e-4
-0.877, -1.394e-4
-0.878, -1.419e-4
-0.879, -1.444e-4
-0.880, -1.470e-4
-0.881, -1.495e-4
-0.882, -1.522e-4
-0.883, -1.548e-4
-0.884, -1.574e-4
-0.885, -1.601e-4
-0.886, -1.627e-4
-0.887, -1.653e-4
-0.888, -1.679e-4
-0.889, -1.706e-4
-0.890, -1.733e-4
-0.891, -1.760e-4
-0.892, -1.787e-4
-0.893, -1.814e-4
-0.894, -1.841e-4
-0.895, -1.869e-4
-0.896, -1.894e-4
-0.897, -1.921e-4
-0.898, -1.949e-4
-0.899, -1.976e-4
-0.900, -2.004e-4
-0.901, -2.031e-4
-0.902, -2.059e-4
-0.903, -2.086e-4
-0.904, -2.114e-4
-0.905, -2.142e-4
-0.906, -2.169e-4
-0.907, -2.197e-4
-0.908, -2.224e-4
-0.909, -2.252e-4
-0.910, -2.280e-4
-0.911, -2.307e-4
-0.912, -2.335e-4
-0.913, -2.362e-4
-0.914, -2.389e-4
-0.915, -2.417e-4
-0.916, -2.443e-4
-0.917, -2.471e-4
-0.918, -2.498e-4
-0.919, -2.525e-4
-0.920, -2.552e-4
-0.921, -2.578e-4
-0.922, -2.606e-4
-0.923, -2.633e-4
-0.924, -2.659e-4
-0.925, -2.685e-4
-0.926, -2.711e-4
-0.927, -2.737e-4
-0.928, -2.762e-4
-0.929, -2.787e-4
-0.930, -2.813e-4
-0.931, -2.837e-4
-0.932, -2.862e-4
-0.933, -2.887e-4
-0.934, -2.911e-4
-0.935, -2.936e-4
-0.936, -2.960e-4
-0.937, -2.984e-4
-0.938, -3.007e-4
-0.939, -3.030e-4
-0.940, -3.053e-4
-0.941, -3.075e-4
-0.942, -3.097e-4
-0.943, -3.119e-4
-0.944, -3.140e-4
-0.945, -3.161e-4
-0.946, -3.182e-4
-0.947, -3.202e-4
-0.948, -3.220e-4
-0.949, -3.240e-4
-0.950, -3.259e-4
-0.951, -3.278e-4
-0.952, -3.297e-4
-0.953, -3.315e-4
-0.954, -3.332e-4
-0.955, -3.350e-4
-0.956, -3.366e-4
-0.957, -3.382e-4
-0.958, -3.397e-4
-0.959, -3.413e-4
-0.960, -3.427e-4
-0.961, -3.441e-4
-0.962, -3.455e-4
-0.963, -3.468e-4
-0.964, -3.480e-4
-0.965, -3.492e-4
-0.966, -3.503e-4
-0.967, -3.513e-4
-0.968, -3.523e-4
-0.969, -3.532e-4
-0.970, -3.540e-4
-0.971, -3.548e-4
-0.972, -3.555e-4
-0.973, -3.563e-4
-0.974, -3.569e-4
-0.975, -3.574e-4
-0.976, -3.578e-4
-0.977, -3.582e-4
-0.978, -3.585e-4
-0.979, -3.586e-4
-0.980, -3.588e-4
-0.981, -3.588e-4
-0.982, -3.588e-4
-0.983, -3.586e-4
-0.984, -3.585e-4
-0.985, -3.582e-4
-0.986, -3.579e-4
-0.987, -3.575e-4
-0.988, -3.570e-4
-0.989, -3.564e-4
-0.990, -3.557e-4
-0.991, -3.550e-4
-0.992, -3.541e-4
-0.993, -3.532e-4
-0.994, -3.523e-4
-0.995, -3.513e-4
-0.996, -3.501e-4
-0.997, -3.490e-4
-0.998, -3.477e-4
-0.999, -3.463e-4
-1.000, -3.449e-4
-1.001, -3.435e-4
-1.002, -3.420e-4
-1.003, -3.405e-4
-1.004, -3.389e-4
-1.005, -3.373e-4
-1.006, -3.356e-4
-1.007, -3.339e-4
-1.008, -3.321e-4
-1.009, -3.303e-4
-1.010, -3.285e-4
-1.011, -3.266e-4
-1.012, -3.248e-4
-1.013, -3.229e-4
-1.014, -3.209e-4
-1.015, -3.190e-4
-1.016, -3.170e-4
-1.017, -3.151e-4
-1.018, -3.131e-4
-1.019, -3.111e-4
-1.020, -3.092e-4
-1.021, -3.072e-4
-1.022, -3.052e-4
-1.023, -3.032e-4
-1.024, -3.013e-4
-1.025, -2.994e-4
-1.026, -2.975e-4
-1.027, -2.956e-4
-1.028, -2.936e-4
-1.029, -2.918e-4
-1.030, -2.899e-4
-1.031, -2.881e-4
-1.032, -2.862e-4
-1.033, -2.844e-4
-1.034, -2.826e-4
-1.035, -2.809e-4
-1.036, -2.791e-4
-1.037, -2.774e-4
-1.038, -2.757e-4
-1.039, -2.740e-4
-1.040, -2.724e-4
-1.041, -2.708e-4
-1.042, -2.692e-4
-1.043, -2.676e-4
-1.044, -2.660e-4
-1.045, -2.645e-4
-1.046, -2.630e-4
-1.047, -2.615e-4
-1.048, -2.601e-4
-1.049, -2.586e-4
-1.050, -2.572e-4
-1.051, -2.558e-4
-1.052, -2.545e-4
-1.053, -2.531e-4
-1.054, -2.518e-4
-1.055, -2.505e-4
-1.056, -2.492e-4
-1.057, -2.479e-4
-1.058, -2.467e-4
-1.059, -2.454e-4
-1.060, -2.442e-4
-1.061, -2.430e-4
-1.062, -2.419e-4
-1.063, -2.407e-4
-1.064, -2.396e-4
-1.065, -2.385e-4
-1.066, -2.374e-4
-1.067, -2.363e-4
-1.068, -2.352e-4
-1.069, -2.342e-4
-1.070, -2.331e-4
-1.071, -2.321e-4
-1.072, -2.311e-4
-1.073, -2.302e-4
-1.074, -2.292e-4
-1.075, -2.282e-4
-1.076, -2.273e-4
-1.077, -2.263e-4
-1.078, -2.254e-4
-1.079, -2.245e-4
-1.080, -2.236e-4
-1.081, -2.227e-4
-1.082, -2.218e-4
-1.083, -2.210e-4
-1.084, -2.201e-4
-1.085, -2.193e-4
-1.086, -2.185e-4
-1.087, -2.177e-4
-1.088, -2.169e-4
-1.089, -2.161e-4
-1.090, -2.153e-4
-1.091, -2.146e-4
-1.092, -2.138e-4
-1.093, -2.131e-4
-1.094, -2.124e-4
-1.095, -2.116e-4
-1.096, -2.109e-4
-1.097, -2.102e-4
-1.098, -2.095e-4
-1.099, -2.088e-4
-1.100, -2.081e-4
-1.101, -2.074e-4
-1.102, -2.068e-4
-1.103, -2.061e-4
-1.104, -2.055e-4
-1.105, -2.048e-4
-1.106, -2.042e-4
-1.107, -2.036e-4
-1.108, -2.030e-4
-1.109, -2.024e-4
-1.110, -2.018e-4
-1.111, -2.012e-4
-1.112, -2.006e-4
-1.113, -2.000e-4
-1.114, -1.995e-4
-1.115, -1.989e-4
-1.116, -1.984e-4
-1.117, -1.978e-4
-1.118, -1.973e-4
-1.119, -1.967e-4
-1.120, -1.962e-4
-1.121, -1.957e-4
-1.122, -1.952e-4
-1.123, -1.946e-4
-1.124, -1.941e-4
-1.125, -1.936e-4
-1.126, -1.931e-4
-1.127, -1.926e-4
-1.128, -1.921e-4
-1.129, -1.916e-4
-1.130, -1.912e-4
-1.131, -1.907e-4
-1.132, -1.903e-4
-1.133, -1.899e-4
-1.134, -1.894e-4
-1.135, -1.890e-4
-1.136, -1.885e-4
-1.137, -1.881e-4
-1.138, -1.877e-4
-1.139, -1.872e-4
-1.140, -1.868e-4
-1.141, -1.864e-4
-1.142, -1.860e-4
-1.143, -1.856e-4
-1.144, -1.852e-4
-1.145, -1.848e-4
-1.146, -1.844e-4
-1.147, -1.840e-4
-1.148, -1.836e-4
-1.149, -1.832e-4
-1.150, -1.828e-4
-1.151, -1.824e-4
-1.152, -1.821e-4
-1.153, -1.817e-4
-1.154, -1.813e-4
-1.155, -1.810e-4
-1.156, -1.807e-4
-1.157, -1.803e-4
-1.158, -1.800e-4
-1.159, -1.796e-4
-1.160, -1.793e-4
-1.161, -1.790e-4
-1.162, -1.787e-4
-1.163, -1.783e-4
-1.164, -1.780e-4
-1.165, -1.777e-4
-1.166, -1.774e-4
-1.167, -1.770e-4
-1.168, -1.767e-4
-1.169, -1.764e-4
-1.170, -1.761e-4
-1.171, -1.757e-4
-1.172, -1.754e-4
-1.173, -1.752e-4
-1.174, -1.749e-4
-1.175, -1.746e-4
-1.176, -1.743e-4
-1.177, -1.741e-4
-1.178, -1.738e-4
-1.179, -1.735e-4
-1.180, -1.732e-4
-1.181, -1.730e-4
-1.182, -1.727e-4
-1.183, -1.724e-4
-1.184, -1.722e-4
-1.185, -1.719e-4
-1.186, -1.717e-4
-1.187, -1.714e-4
-1.188, -1.711e-4
-1.189, -1.708e-4
-1.190, -1.706e-4
-1.191, -1.703e-4
-1.192, -1.701e-4
-1.193, -1.699e-4
-1.194, -1.696e-4
-1.195, -1.694e-4
-1.196, -1.692e-4
-1.197, -1.690e-4
-1.198, -1.687e-4
-1.199, -1.685e-4
