May 10, 2022   10:06:48
Cyclic Voltammetry
File: c:\users\nstumme\onedrive - university of iowa\documents\year 3\220510\nq\200 mv.csv
Data Source:  Experiment
Instrument Model:  CHI660D
Header: 
Note: 

Init E (V) = -1.2
High E (V) = -0.5
Low E (V) = -1.2
Init P/N = P
Scan Rate (V/s) = 0.2
Segment = 6
Sample Interval (V) = 0.001
Quiet Time (sec) = 2
Sensitivity (A/V) = 1e-4

Segment 1:

Segment 2:

Segment 3:

Segment 4:

Segment 5:

Segment 6:

Potential/V, Current/A

-1.200, -1.716e-4
-1.199, -1.713e-4
-1.198, -1.711e-4
-1.197, -1.709e-4
-1.196, -1.707e-4
-1.195, -1.706e-4
-1.194, -1.704e-4
-1.193, -1.702e-4
-1.192, -1.700e-4
-1.191, -1.699e-4
-1.190, -1.697e-4
-1.189, -1.696e-4
-1.188, -1.694e-4
-1.187, -1.693e-4
-1.186, -1.691e-4
-1.185, -1.690e-4
-1.184, -1.688e-4
-1.183, -1.687e-4
-1.182, -1.686e-4
-1.181, -1.684e-4
-1.180, -1.683e-4
-1.179, -1.681e-4
-1.178, -1.680e-4
-1.177, -1.679e-4
-1.176, -1.677e-4
-1.175, -1.676e-4
-1.174, -1.675e-4
-1.173, -1.673e-4
-1.172, -1.672e-4
-1.171, -1.670e-4
-1.170, -1.669e-4
-1.169, -1.667e-4
-1.168, -1.666e-4
-1.167, -1.665e-4
-1.166, -1.663e-4
-1.165, -1.662e-4
-1.164, -1.661e-4
-1.163, -1.659e-4
-1.162, -1.658e-4
-1.161, -1.657e-4
-1.160, -1.655e-4
-1.159, -1.654e-4
-1.158, -1.653e-4
-1.157, -1.652e-4
-1.156, -1.651e-4
-1.155, -1.650e-4
-1.154, -1.649e-4
-1.153, -1.647e-4
-1.152, -1.646e-4
-1.151, -1.645e-4
-1.150, -1.644e-4
-1.149, -1.643e-4
-1.148, -1.642e-4
-1.147, -1.641e-4
-1.146, -1.639e-4
-1.145, -1.638e-4
-1.144, -1.637e-4
-1.143, -1.635e-4
-1.142, -1.634e-4
-1.141, -1.633e-4
-1.140, -1.632e-4
-1.139, -1.630e-4
-1.138, -1.629e-4
-1.137, -1.628e-4
-1.136, -1.626e-4
-1.135, -1.625e-4
-1.134, -1.624e-4
-1.133, -1.623e-4
-1.132, -1.622e-4
-1.131, -1.620e-4
-1.130, -1.619e-4
-1.129, -1.618e-4
-1.128, -1.617e-4
-1.127, -1.616e-4
-1.126, -1.614e-4
-1.125, -1.613e-4
-1.124, -1.612e-4
-1.123, -1.611e-4
-1.122, -1.610e-4
-1.121, -1.608e-4
-1.120, -1.607e-4
-1.119, -1.606e-4
-1.118, -1.605e-4
-1.117, -1.604e-4
-1.116, -1.603e-4
-1.115, -1.602e-4
-1.114, -1.601e-4
-1.113, -1.600e-4
-1.112, -1.598e-4
-1.111, -1.597e-4
-1.110, -1.596e-4
-1.109, -1.595e-4
-1.108, -1.594e-4
-1.107, -1.593e-4
-1.106, -1.591e-4
-1.105, -1.590e-4
-1.104, -1.589e-4
-1.103, -1.588e-4
-1.102, -1.586e-4
-1.101, -1.585e-4
-1.100, -1.584e-4
-1.099, -1.583e-4
-1.098, -1.582e-4
-1.097, -1.580e-4
-1.096, -1.579e-4
-1.095, -1.578e-4
-1.094, -1.577e-4
-1.093, -1.575e-4
-1.092, -1.574e-4
-1.091, -1.573e-4
-1.090, -1.571e-4
-1.089, -1.570e-4
-1.088, -1.569e-4
-1.087, -1.567e-4
-1.086, -1.566e-4
-1.085, -1.565e-4
-1.084, -1.563e-4
-1.083, -1.562e-4
-1.082, -1.560e-4
-1.081, -1.559e-4
-1.080, -1.558e-4
-1.079, -1.556e-4
-1.078, -1.555e-4
-1.077, -1.554e-4
-1.076, -1.552e-4
-1.075, -1.551e-4
-1.074, -1.550e-4
-1.073, -1.549e-4
-1.072, -1.547e-4
-1.071, -1.546e-4
-1.070, -1.545e-4
-1.069, -1.543e-4
-1.068, -1.542e-4
-1.067, -1.540e-4
-1.066, -1.539e-4
-1.065, -1.537e-4
-1.064, -1.536e-4
-1.063, -1.534e-4
-1.062, -1.532e-4
-1.061, -1.531e-4
-1.060, -1.529e-4
-1.059, -1.527e-4
-1.058, -1.525e-4
-1.057, -1.524e-4
-1.056, -1.522e-4
-1.055, -1.520e-4
-1.054, -1.518e-4
-1.053, -1.516e-4
-1.052, -1.515e-4
-1.051, -1.513e-4
-1.050, -1.511e-4
-1.049, -1.509e-4
-1.048, -1.507e-4
-1.047, -1.505e-4
-1.046, -1.503e-4
-1.045, -1.501e-4
-1.044, -1.498e-4
-1.043, -1.496e-4
-1.042, -1.494e-4
-1.041, -1.492e-4
-1.040, -1.489e-4
-1.039, -1.487e-4
-1.038, -1.485e-4
-1.037, -1.482e-4
-1.036, -1.480e-4
-1.035, -1.477e-4
-1.034, -1.475e-4
-1.033, -1.472e-4
-1.032, -1.470e-4
-1.031, -1.467e-4
-1.030, -1.464e-4
-1.029, -1.462e-4
-1.028, -1.459e-4
-1.027, -1.456e-4
-1.026, -1.453e-4
-1.025, -1.450e-4
-1.024, -1.446e-4
-1.023, -1.443e-4
-1.022, -1.440e-4
-1.021, -1.436e-4
-1.020, -1.433e-4
-1.019, -1.429e-4
-1.018, -1.425e-4
-1.017, -1.421e-4
-1.016, -1.417e-4
-1.015, -1.413e-4
-1.014, -1.409e-4
-1.013, -1.404e-4
-1.012, -1.400e-4
-1.011, -1.396e-4
-1.010, -1.391e-4
-1.009, -1.386e-4
-1.008, -1.381e-4
-1.007, -1.376e-4
-1.006, -1.371e-4
-1.005, -1.366e-4
-1.004, -1.361e-4
-1.003, -1.355e-4
-1.002, -1.350e-4
-1.001, -1.344e-4
-1.000, -1.337e-4
-0.999, -1.332e-4
-0.998, -1.326e-4
-0.997, -1.319e-4
-0.996, -1.313e-4
-0.995, -1.306e-4
-0.994, -1.299e-4
-0.993, -1.292e-4
-0.992, -1.285e-4
-0.991, -1.278e-4
-0.990, -1.269e-4
-0.989, -1.262e-4
-0.988, -1.254e-4
-0.987, -1.245e-4
-0.986, -1.237e-4
-0.985, -1.229e-4
-0.984, -1.220e-4
-0.983, -1.211e-4
-0.982, -1.202e-4
-0.981, -1.192e-4
-0.980, -1.182e-4
-0.979, -1.172e-4
-0.978, -1.163e-4
-0.977, -1.152e-4
-0.976, -1.141e-4
-0.975, -1.131e-4
-0.974, -1.119e-4
-0.973, -1.107e-4
-0.972, -1.095e-4
-0.971, -1.083e-4
-0.970, -1.071e-4
-0.969, -1.059e-4
-0.968, -1.047e-4
-0.967, -1.033e-4
-0.966, -1.020e-4
-0.965, -1.007e-4
-0.964, -9.931e-5
-0.963, -9.788e-5
-0.962, -9.653e-5
-0.961, -9.502e-5
-0.960, -9.347e-5
-0.959, -9.203e-5
-0.958, -9.047e-5
-0.957, -8.884e-5
-0.956, -8.731e-5
-0.955, -8.571e-5
-0.954, -8.408e-5
-0.953, -8.237e-5
-0.952, -8.071e-5
-0.951, -7.897e-5
-0.950, -7.718e-5
-0.949, -7.545e-5
-0.948, -7.367e-5
-0.947, -7.192e-5
-0.946, -7.007e-5
-0.945, -6.820e-5
-0.944, -6.623e-5
-0.943, -6.427e-5
-0.942, -6.235e-5
-0.941, -6.038e-5
-0.940, -5.830e-5
-0.939, -5.624e-5
-0.938, -5.418e-5
-0.937, -5.201e-5
-0.936, -4.985e-5
-0.935, -4.773e-5
-0.934, -4.546e-5
-0.933, -4.319e-5
-0.932, -4.100e-5
-0.931, -3.869e-5
-0.930, -3.638e-5
-0.929, -3.408e-5
-0.928, -3.180e-5
-0.927, -2.937e-5
-0.926, -2.690e-5
-0.925, -2.459e-5
-0.924, -2.209e-5
-0.923, -1.952e-5
-0.922, -1.710e-5
-0.921, -1.445e-5
-0.920, -1.180e-5
-0.919, -9.329e-6
-0.918, -6.837e-6
-0.917, -4.112e-6
-0.916, -1.477e-6
-0.915, 1.076e-6
-0.914, 3.784e-6
-0.913, 6.571e-6
-0.912, 9.203e-6
-0.911, 1.193e-5
-0.910, 1.482e-5
-0.909, 1.757e-5
-0.908, 2.031e-5
-0.907, 2.323e-5
-0.906, 2.602e-5
-0.905, 2.874e-5
-0.904, 3.170e-5
-0.903, 3.461e-5
-0.902, 3.739e-5
-0.901, 4.028e-5
-0.900, 4.331e-5
-0.899, 4.616e-5
-0.898, 4.907e-5
-0.897, 5.217e-5
-0.896, 5.496e-5
-0.895, 5.777e-5
-0.894, 6.087e-5
-0.893, 6.393e-5
-0.892, 6.684e-5
-0.891, 6.998e-5
-0.890, 7.307e-5
-0.889, 7.604e-5
-0.888, 7.906e-5
-0.887, 8.218e-5
-0.886, 8.527e-5
-0.885, 8.827e-5
-0.884, 9.149e-5
-0.883, 9.469e-5
-0.882, 9.774e-5
-0.881, 1.009e-4
-0.880, 1.041e-4
-0.879, 1.071e-4
-0.878, 1.102e-4
-0.877, 1.134e-4
-0.876, 1.165e-4
-0.875, 1.196e-4
-0.874, 1.229e-4
-0.873, 1.261e-4
-0.872, 1.292e-4
-0.871, 1.323e-4
-0.870, 1.358e-4
-0.869, 1.389e-4
-0.868, 1.420e-4
-0.867, 1.452e-4
-0.866, 1.483e-4
-0.865, 1.514e-4
-0.864, 1.545e-4
-0.863, 1.577e-4
-0.862, 1.608e-4
-0.861, 1.639e-4
-0.860, 1.671e-4
-0.859, 1.702e-4
-0.858, 1.732e-4
-0.857, 1.764e-4
-0.856, 1.795e-4
-0.855, 1.825e-4
-0.854, 1.856e-4
-0.853, 1.887e-4
-0.852, 1.916e-4
-0.851, 1.947e-4
-0.850, 1.978e-4
-0.849, 2.007e-4
-0.848, 2.036e-4
-0.847, 2.067e-4
-0.846, 2.097e-4
-0.845, 2.124e-4
-0.844, 2.153e-4
-0.843, 2.182e-4
-0.842, 2.210e-4
-0.841, 2.239e-4
-0.840, 2.269e-4
-0.839, 2.297e-4
-0.838, 2.324e-4
-0.837, 2.353e-4
-0.836, 2.380e-4
-0.835, 2.406e-4
-0.834, 2.434e-4
-0.833, 2.462e-4
-0.832, 2.487e-4
-0.831, 2.514e-4
-0.830, 2.541e-4
-0.829, 2.566e-4
-0.828, 2.590e-4
-0.827, 2.617e-4
-0.826, 2.641e-4
-0.825, 2.664e-4
-0.824, 2.689e-4
-0.823, 2.713e-4
-0.822, 2.735e-4
-0.821, 2.757e-4
-0.820, 2.781e-4
-0.819, 2.798e-4
-0.818, 2.818e-4
-0.817, 2.840e-4
-0.816, 2.861e-4
-0.815, 2.880e-4
-0.814, 2.901e-4
-0.813, 2.921e-4
-0.812, 2.939e-4
-0.811, 2.958e-4
-0.810, 2.976e-4
-0.809, 2.992e-4
-0.808, 3.008e-4
-0.807, 3.025e-4
-0.806, 3.041e-4
-0.805, 3.056e-4
-0.804, 3.070e-4
-0.803, 3.084e-4
-0.802, 3.096e-4
-0.801, 3.109e-4
-0.800, 3.121e-4
-0.799, 3.132e-4
-0.798, 3.142e-4
-0.797, 3.152e-4
-0.796, 3.160e-4
-0.795, 3.169e-4
-0.794, 3.176e-4
-0.793, 3.182e-4
-0.792, 3.187e-4
-0.791, 3.193e-4
-0.790, 3.198e-4
-0.789, 3.201e-4
-0.788, 3.204e-4
-0.787, 3.207e-4
-0.786, 3.208e-4
-0.785, 3.208e-4
-0.784, 3.208e-4
-0.783, 3.206e-4
-0.782, 3.204e-4
-0.781, 3.201e-4
-0.780, 3.198e-4
-0.779, 3.193e-4
-0.778, 3.187e-4
-0.777, 3.181e-4
-0.776, 3.174e-4
-0.775, 3.165e-4
-0.774, 3.156e-4
-0.773, 3.147e-4
-0.772, 3.135e-4
-0.771, 3.124e-4
-0.770, 3.112e-4
-0.769, 3.098e-4
-0.768, 3.085e-4
-0.767, 3.072e-4
-0.766, 3.056e-4
-0.765, 3.039e-4
-0.764, 3.022e-4
-0.763, 3.005e-4
-0.762, 2.986e-4
-0.761, 2.967e-4
-0.760, 2.949e-4
-0.759, 2.928e-4
-0.758, 2.908e-4
-0.757, 2.888e-4
-0.756, 2.866e-4
-0.755, 2.845e-4
-0.754, 2.823e-4
-0.753, 2.801e-4
-0.752, 2.778e-4
-0.751, 2.756e-4
-0.750, 2.734e-4
-0.749, 2.710e-4
-0.748, 2.688e-4
-0.747, 2.665e-4
-0.746, 2.642e-4
-0.745, 2.619e-4
-0.744, 2.596e-4
-0.743, 2.573e-4
-0.742, 2.549e-4
-0.741, 2.527e-4
-0.740, 2.505e-4
-0.739, 2.482e-4
-0.738, 2.460e-4
-0.737, 2.438e-4
-0.736, 2.416e-4
-0.735, 2.394e-4
-0.734, 2.373e-4
-0.733, 2.352e-4
-0.732, 2.330e-4
-0.731, 2.310e-4
-0.730, 2.289e-4
-0.729, 2.269e-4
-0.728, 2.249e-4
-0.727, 2.229e-4
-0.726, 2.210e-4
-0.725, 2.191e-4
-0.724, 2.172e-4
-0.723, 2.153e-4
-0.722, 2.135e-4
-0.721, 2.117e-4
-0.720, 2.099e-4
-0.719, 2.081e-4
-0.718, 2.064e-4
-0.717, 2.047e-4
-0.716, 2.030e-4
-0.715, 2.013e-4
-0.714, 1.997e-4
-0.713, 1.981e-4
-0.712, 1.965e-4
-0.711, 1.950e-4
-0.710, 1.934e-4
-0.709, 1.919e-4
-0.708, 1.904e-4
-0.707, 1.890e-4
-0.706, 1.875e-4
-0.705, 1.861e-4
-0.704, 1.847e-4
-0.703, 1.833e-4
-0.702, 1.820e-4
-0.701, 1.806e-4
-0.700, 1.793e-4
-0.699, 1.780e-4
-0.698, 1.767e-4
-0.697, 1.754e-4
-0.696, 1.742e-4
-0.695, 1.730e-4
-0.694, 1.718e-4
-0.693, 1.706e-4
-0.692, 1.694e-4
-0.691, 1.682e-4
-0.690, 1.671e-4
-0.689, 1.659e-4
-0.688, 1.648e-4
-0.687, 1.637e-4
-0.686, 1.627e-4
-0.685, 1.616e-4
-0.684, 1.605e-4
-0.683, 1.595e-4
-0.682, 1.585e-4
-0.681, 1.574e-4
-0.680, 1.564e-4
-0.679, 1.555e-4
-0.678, 1.545e-4
-0.677, 1.535e-4
-0.676, 1.526e-4
-0.675, 1.516e-4
-0.674, 1.507e-4
-0.673, 1.498e-4
-0.672, 1.488e-4
-0.671, 1.479e-4
-0.670, 1.471e-4
-0.669, 1.462e-4
-0.668, 1.453e-4
-0.667, 1.445e-4
-0.666, 1.436e-4
-0.665, 1.428e-4
-0.664, 1.420e-4
-0.663, 1.412e-4
-0.662, 1.404e-4
-0.661, 1.396e-4
-0.660, 1.388e-4
-0.659, 1.380e-4
-0.658, 1.372e-4
-0.657, 1.365e-4
-0.656, 1.357e-4
-0.655, 1.350e-4
-0.654, 1.342e-4
-0.653, 1.335e-4
-0.652, 1.328e-4
-0.651, 1.321e-4
-0.650, 1.314e-4
-0.649, 1.307e-4
-0.648, 1.300e-4
-0.647, 1.293e-4
-0.646, 1.286e-4
-0.645, 1.280e-4
-0.644, 1.273e-4
-0.643, 1.266e-4
-0.642, 1.260e-4
-0.641, 1.254e-4
-0.640, 1.247e-4
-0.639, 1.241e-4
-0.638, 1.235e-4
-0.637, 1.228e-4
-0.636, 1.222e-4
-0.635, 1.216e-4
-0.634, 1.210e-4
-0.633, 1.204e-4
-0.632, 1.198e-4
-0.631, 1.192e-4
-0.630, 1.187e-4
-0.629, 1.181e-4
-0.628, 1.175e-4
-0.627, 1.170e-4
-0.626, 1.164e-4
-0.625, 1.159e-4
-0.624, 1.153e-4
-0.623, 1.148e-4
-0.622, 1.142e-4
-0.621, 1.137e-4
-0.620, 1.132e-4
-0.619, 1.127e-4
-0.618, 1.121e-4
-0.617, 1.116e-4
-0.616, 1.111e-4
-0.615, 1.106e-4
-0.614, 1.101e-4
-0.613, 1.096e-4
-0.612, 1.091e-4
-0.611, 1.086e-4
-0.610, 1.081e-4
-0.609, 1.077e-4
-0.608, 1.072e-4
-0.607, 1.067e-4
-0.606, 1.062e-4
-0.605, 1.058e-4
-0.604, 1.053e-4
-0.603, 1.048e-4
-0.602, 1.044e-4
-0.601, 1.039e-4
-0.600, 1.035e-4
-0.599, 1.031e-4
-0.598, 1.026e-4
-0.597, 1.022e-4
-0.596, 1.018e-4
-0.595, 1.013e-4
-0.594, 1.009e-4
-0.593, 1.005e-4
-0.592, 1.001e-4
-0.591, 9.963e-5
-0.590, 9.921e-5
-0.589, 9.880e-5
-0.588, 9.839e-5
-0.587, 9.798e-5
-0.586, 9.758e-5
-0.585, 9.718e-5
-0.584, 9.677e-5
-0.583, 9.639e-5
-0.582, 9.600e-5
-0.581, 9.560e-5
-0.580, 9.522e-5
-0.579, 9.485e-5
-0.578, 9.446e-5
-0.577, 9.407e-5
-0.576, 9.371e-5
-0.575, 9.333e-5
-0.574, 9.295e-5
-0.573, 9.259e-5
-0.572, 9.223e-5
-0.571, 9.186e-5
-0.570, 9.150e-5
-0.569, 9.115e-5
-0.568, 9.079e-5
-0.567, 9.043e-5
-0.566, 9.009e-5
-0.565, 8.974e-5
-0.564, 8.939e-5
-0.563, 8.905e-5
-0.562, 8.872e-5
-0.561, 8.837e-5
-0.560, 8.804e-5
-0.559, 8.772e-5
-0.558, 8.739e-5
-0.557, 8.705e-5
-0.556, 8.674e-5
-0.555, 8.641e-5
-0.554, 8.608e-5
-0.553, 8.576e-5
-0.552, 8.545e-5
-0.551, 8.512e-5
-0.550, 8.480e-5
-0.549, 8.450e-5
-0.548, 8.417e-5
-0.547, 8.386e-5
-0.546, 8.356e-5
-0.545, 8.325e-5
-0.544, 8.294e-5
-0.543, 8.264e-5
-0.542, 8.235e-5
-0.541, 8.204e-5
-0.540, 8.174e-5
-0.539, 8.145e-5
-0.538, 8.115e-5
-0.537, 8.085e-5
-0.536, 8.058e-5
-0.535, 8.028e-5
-0.534, 7.999e-5
-0.533, 7.971e-5
-0.532, 7.943e-5
-0.531, 7.914e-5
-0.530, 7.886e-5
-0.529, 7.859e-5
-0.528, 7.831e-5
-0.527, 7.804e-5
-0.526, 7.777e-5
-0.525, 7.750e-5
-0.524, 7.722e-5
-0.523, 7.697e-5
-0.522, 7.671e-5
-0.521, 7.643e-5
-0.520, 7.617e-5
-0.519, 7.593e-5
-0.518, 7.566e-5
-0.517, 7.540e-5
-0.516, 7.516e-5
-0.515, 7.490e-5
-0.514, 7.463e-5
-0.513, 7.439e-5
-0.512, 7.414e-5
-0.511, 7.388e-5
-0.510, 7.363e-5
-0.509, 7.339e-5
-0.508, 7.313e-5
-0.507, 7.288e-5
-0.506, 7.264e-5
-0.505, 7.240e-5
-0.504, 7.215e-5
-0.503, 7.192e-5
-0.502, 7.168e-5
-0.501, 7.144e-5
-0.500, 7.111e-5
-0.501, 7.077e-5
-0.502, 7.047e-5
-0.503, 7.019e-5
-0.504, 6.994e-5
-0.505, 6.967e-5
-0.506, 6.940e-5
-0.507, 6.915e-5
-0.508, 6.891e-5
-0.509, 6.865e-5
-0.510, 6.840e-5
-0.511, 6.817e-5
-0.512, 6.791e-5
-0.513, 6.767e-5
-0.514, 6.744e-5
-0.515, 6.721e-5
-0.516, 6.697e-5
-0.517, 6.674e-5
-0.518, 6.652e-5
-0.519, 6.628e-5
-0.520, 6.605e-5
-0.521, 6.584e-5
-0.522, 6.561e-5
-0.523, 6.539e-5
-0.524, 6.518e-5
-0.525, 6.496e-5
-0.526, 6.473e-5
-0.527, 6.452e-5
-0.528, 6.431e-5
-0.529, 6.408e-5
-0.530, 6.387e-5
-0.531, 6.366e-5
-0.532, 6.344e-5
-0.533, 6.322e-5
-0.534, 6.302e-5
-0.535, 6.280e-5
-0.536, 6.259e-5
-0.537, 6.239e-5
-0.538, 6.218e-5
-0.539, 6.197e-5
-0.540, 6.176e-5
-0.541, 6.157e-5
-0.542, 6.137e-5
-0.543, 6.116e-5
-0.544, 6.098e-5
-0.545, 6.078e-5
-0.546, 6.057e-5
-0.547, 6.039e-5
-0.548, 6.020e-5
-0.549, 5.999e-5
-0.550, 5.980e-5
-0.551, 5.962e-5
-0.552, 5.941e-5
-0.553, 5.922e-5
-0.554, 5.904e-5
-0.555, 5.885e-5
-0.556, 5.865e-5
-0.557, 5.847e-5
-0.558, 5.829e-5
-0.559, 5.810e-5
-0.560, 5.791e-5
-0.561, 5.774e-5
-0.562, 5.755e-5
-0.563, 5.736e-5
-0.564, 5.720e-5
-0.565, 5.702e-5
-0.566, 5.683e-5
-0.567, 5.666e-5
-0.568, 5.649e-5
-0.569, 5.631e-5
-0.570, 5.613e-5
-0.571, 5.596e-5
-0.572, 5.578e-5
-0.573, 5.560e-5
-0.574, 5.543e-5
-0.575, 5.526e-5
-0.576, 5.507e-5
-0.577, 5.491e-5
-0.578, 5.474e-5
-0.579, 5.456e-5
-0.580, 5.439e-5
-0.581, 5.423e-5
-0.582, 5.405e-5
-0.583, 5.388e-5
-0.584, 5.373e-5
-0.585, 5.356e-5
-0.586, 5.338e-5
-0.587, 5.323e-5
-0.588, 5.307e-5
-0.589, 5.290e-5
-0.590, 5.273e-5
-0.591, 5.259e-5
-0.592, 5.242e-5
-0.593, 5.225e-5
-0.594, 5.210e-5
-0.595, 5.193e-5
-0.596, 5.177e-5
-0.597, 5.161e-5
-0.598, 5.145e-5
-0.599, 5.129e-5
-0.600, 5.113e-5
-0.601, 5.098e-5
-0.602, 5.082e-5
-0.603, 5.066e-5
-0.604, 5.052e-5
-0.605, 5.037e-5
-0.606, 5.021e-5
-0.607, 5.006e-5
-0.608, 4.992e-5
-0.609, 4.976e-5
-0.610, 4.961e-5
-0.611, 4.947e-5
-0.612, 4.932e-5
-0.613, 4.916e-5
-0.614, 4.902e-5
-0.615, 4.888e-5
-0.616, 4.872e-5
-0.617, 4.858e-5
-0.618, 4.844e-5
-0.619, 4.827e-5
-0.620, 4.813e-5
-0.621, 4.799e-5
-0.622, 4.783e-5
-0.623, 4.768e-5
-0.624, 4.754e-5
-0.625, 4.740e-5
-0.626, 4.724e-5
-0.627, 4.710e-5
-0.628, 4.696e-5
-0.629, 4.681e-5
-0.630, 4.667e-5
-0.631, 4.653e-5
-0.632, 4.638e-5
-0.633, 4.624e-5
-0.634, 4.611e-5
-0.635, 4.597e-5
-0.636, 4.582e-5
-0.637, 4.568e-5
-0.638, 4.555e-5
-0.639, 4.540e-5
-0.640, 4.527e-5
-0.641, 4.514e-5
-0.642, 4.500e-5
-0.643, 4.486e-5
-0.644, 4.473e-5
-0.645, 4.459e-5
-0.646, 4.445e-5
-0.647, 4.432e-5
-0.648, 4.419e-5
-0.649, 4.405e-5
-0.650, 4.391e-5
-0.651, 4.378e-5
-0.652, 4.364e-5
-0.653, 4.350e-5
-0.654, 4.336e-5
-0.655, 4.322e-5
-0.656, 4.308e-5
-0.657, 4.294e-5
-0.658, 4.280e-5
-0.659, 4.265e-5
-0.660, 4.252e-5
-0.661, 4.238e-5
-0.662, 4.223e-5
-0.663, 4.209e-5
-0.664, 4.196e-5
-0.665, 4.182e-5
-0.666, 4.167e-5
-0.667, 4.154e-5
-0.668, 4.140e-5
-0.669, 4.126e-5
-0.670, 4.112e-5
-0.671, 4.099e-5
-0.672, 4.085e-5
-0.673, 4.071e-5
-0.674, 4.058e-5
-0.675, 4.043e-5
-0.676, 4.028e-5
-0.677, 4.014e-5
-0.678, 3.999e-5
-0.679, 3.984e-5
-0.680, 3.969e-5
-0.681, 3.955e-5
-0.682, 3.939e-5
-0.683, 3.924e-5
-0.684, 3.909e-5
-0.685, 3.894e-5
-0.686, 3.878e-5
-0.687, 3.863e-5
-0.688, 3.848e-5
-0.689, 3.832e-5
-0.690, 3.817e-5
-0.691, 3.803e-5
-0.692, 3.786e-5
-0.693, 3.770e-5
-0.694, 3.755e-5
-0.695, 3.738e-5
-0.696, 3.721e-5
-0.697, 3.705e-5
-0.698, 3.688e-5
-0.699, 3.670e-5
-0.700, 3.653e-5
-0.701, 3.635e-5
-0.702, 3.616e-5
-0.703, 3.598e-5
-0.704, 3.580e-5
-0.705, 3.561e-5
-0.706, 3.542e-5
-0.707, 3.524e-5
-0.708, 3.504e-5
-0.709, 3.483e-5
-0.710, 3.465e-5
-0.711, 3.444e-5
-0.712, 3.423e-5
-0.713, 3.402e-5
-0.714, 3.382e-5
-0.715, 3.360e-5
-0.716, 3.338e-5
-0.717, 3.314e-5
-0.718, 3.291e-5
-0.719, 3.269e-5
-0.720, 3.245e-5
-0.721, 3.221e-5
-0.722, 3.196e-5
-0.723, 3.171e-5
-0.724, 3.147e-5
-0.725, 3.118e-5
-0.726, 3.093e-5
-0.727, 3.066e-5
-0.728, 3.037e-5
-0.729, 3.010e-5
-0.730, 2.981e-5
-0.731, 2.950e-5
-0.732, 2.921e-5
-0.733, 2.892e-5
-0.734, 2.860e-5
-0.735, 2.826e-5
-0.736, 2.794e-5
-0.737, 2.762e-5
-0.738, 2.725e-5
-0.739, 2.691e-5
-0.740, 2.656e-5
-0.741, 2.615e-5
-0.742, 2.580e-5
-0.743, 2.544e-5
-0.744, 2.502e-5
-0.745, 2.460e-5
-0.746, 2.419e-5
-0.747, 2.376e-5
-0.748, 2.330e-5
-0.749, 2.286e-5
-0.750, 2.240e-5
-0.751, 2.191e-5
-0.752, 2.144e-5
-0.753, 2.095e-5
-0.754, 2.040e-5
-0.755, 1.988e-5
-0.756, 1.936e-5
-0.757, 1.878e-5
-0.758, 1.819e-5
-0.759, 1.766e-5
-0.760, 1.708e-5
-0.761, 1.645e-5
-0.762, 1.581e-5
-0.763, 1.519e-5
-0.764, 1.453e-5
-0.765, 1.384e-5
-0.766, 1.317e-5
-0.767, 1.247e-5
-0.768, 1.162e-5
-0.769, 1.091e-5
-0.770, 1.017e-5
-0.771, 9.370e-6
-0.772, 8.587e-6
-0.773, 7.782e-6
-0.774, 6.960e-6
-0.775, 6.071e-6
-0.776, 5.192e-6
-0.777, 4.313e-6
-0.778, 3.345e-6
-0.779, 2.418e-6
-0.780, 1.468e-6
-0.781, 4.397e-7
-0.782, -5.890e-7
-0.783, -1.574e-6
-0.784, -2.674e-6
-0.785, -3.792e-6
-0.786, -4.873e-6
-0.787, -5.978e-6
-0.788, -7.182e-6
-0.789, -8.363e-6
-0.790, -9.515e-6
-0.791, -1.077e-5
-0.792, -1.206e-5
-0.793, -1.326e-5
-0.794, -1.448e-5
-0.795, -1.592e-5
-0.796, -1.725e-5
-0.797, -1.864e-5
-0.798, -2.012e-5
-0.799, -2.155e-5
-0.800, -2.298e-5
-0.801, -2.455e-5
-0.802, -2.611e-5
-0.803, -2.758e-5
-0.804, -2.918e-5
-0.805, -3.087e-5
-0.806, -3.245e-5
-0.807, -3.413e-5
-0.808, -3.594e-5
-0.809, -3.761e-5
-0.810, -3.931e-5
-0.811, -4.116e-5
-0.812, -4.303e-5
-0.813, -4.478e-5
-0.814, -4.668e-5
-0.815, -4.863e-5
-0.816, -5.048e-5
-0.817, -5.240e-5
-0.818, -5.452e-5
-0.819, -5.626e-5
-0.820, -5.807e-5
-0.821, -6.028e-5
-0.822, -6.243e-5
-0.823, -6.447e-5
-0.824, -6.670e-5
-0.825, -6.892e-5
-0.826, -7.107e-5
-0.827, -7.329e-5
-0.828, -7.565e-5
-0.829, -7.792e-5
-0.830, -8.021e-5
-0.831, -8.265e-5
-0.832, -8.507e-5
-0.833, -8.734e-5
-0.834, -8.981e-5
-0.835, -9.231e-5
-0.836, -9.472e-5
-0.837, -9.722e-5
-0.838, -9.982e-5
-0.839, -1.023e-4
-0.840, -1.048e-4
-0.841, -1.075e-4
-0.842, -1.101e-4
-0.843, -1.127e-4
-0.844, -1.154e-4
-0.845, -1.180e-4
-0.846, -1.205e-4
-0.847, -1.233e-4
-0.848, -1.261e-4
-0.849, -1.288e-4
-0.850, -1.316e-4
-0.851, -1.345e-4
-0.852, -1.373e-4
-0.853, -1.401e-4
-0.854, -1.430e-4
-0.855, -1.460e-4
-0.856, -1.488e-4
-0.857, -1.517e-4
-0.858, -1.547e-4
-0.859, -1.577e-4
-0.860, -1.606e-4
-0.861, -1.637e-4
-0.862, -1.667e-4
-0.863, -1.697e-4
-0.864, -1.727e-4
-0.865, -1.758e-4
-0.866, -1.788e-4
-0.867, -1.818e-4
-0.868, -1.850e-4
-0.869, -1.881e-4
-0.870, -1.912e-4
-0.871, -1.945e-4
-0.872, -1.977e-4
-0.873, -2.007e-4
-0.874, -2.038e-4
-0.875, -2.071e-4
-0.876, -2.102e-4
-0.877, -2.133e-4
-0.878, -2.166e-4
-0.879, -2.197e-4
-0.880, -2.228e-4
-0.881, -2.262e-4
-0.882, -2.294e-4
-0.883, -2.325e-4
-0.884, -2.358e-4
-0.885, -2.392e-4
-0.886, -2.423e-4
-0.887, -2.454e-4
-0.888, -2.488e-4
-0.889, -2.519e-4
-0.890, -2.551e-4
-0.891, -2.584e-4
-0.892, -2.617e-4
-0.893, -2.649e-4
-0.894, -2.682e-4
-0.895, -2.715e-4
-0.896, -2.745e-4
-0.897, -2.776e-4
-0.898, -2.810e-4
-0.899, -2.841e-4
-0.900, -2.873e-4
-0.901, -2.906e-4
-0.902, -2.938e-4
-0.903, -2.969e-4
-0.904, -3.002e-4
-0.905, -3.034e-4
-0.906, -3.064e-4
-0.907, -3.096e-4
-0.908, -3.129e-4
-0.909, -3.161e-4
-0.910, -3.191e-4
-0.911, -3.223e-4
-0.912, -3.255e-4
-0.913, -3.284e-4
-0.914, -3.316e-4
-0.915, -3.347e-4
-0.916, -3.376e-4
-0.917, -3.407e-4
-0.918, -3.438e-4
-0.919, -3.468e-4
-0.920, -3.497e-4
-0.921, -3.528e-4
-0.922, -3.560e-4
-0.923, -3.587e-4
-0.924, -3.617e-4
-0.925, -3.646e-4
-0.926, -3.673e-4
-0.927, -3.702e-4
-0.928, -3.731e-4
-0.929, -3.758e-4
-0.930, -3.785e-4
-0.931, -3.813e-4
-0.932, -3.841e-4
-0.933, -3.867e-4
-0.934, -3.893e-4
-0.935, -3.920e-4
-0.936, -3.945e-4
-0.937, -3.970e-4
-0.938, -3.996e-4
-0.939, -4.021e-4
-0.940, -4.045e-4
-0.941, -4.069e-4
-0.942, -4.093e-4
-0.943, -4.115e-4
-0.944, -4.138e-4
-0.945, -4.160e-4
-0.946, -4.182e-4
-0.947, -4.202e-4
-0.948, -4.223e-4
-0.949, -4.243e-4
-0.950, -4.262e-4
-0.951, -4.282e-4
-0.952, -4.302e-4
-0.953, -4.319e-4
-0.954, -4.337e-4
-0.955, -4.356e-4
-0.956, -4.371e-4
-0.957, -4.387e-4
-0.958, -4.404e-4
-0.959, -4.419e-4
-0.960, -4.433e-4
-0.961, -4.447e-4
-0.962, -4.461e-4
-0.963, -4.472e-4
-0.964, -4.484e-4
-0.965, -4.496e-4
-0.966, -4.506e-4
-0.967, -4.515e-4
-0.968, -4.525e-4
-0.969, -4.533e-4
-0.970, -4.539e-4
-0.971, -4.547e-4
-0.972, -4.554e-4
-0.973, -4.560e-4
-0.974, -4.564e-4
-0.975, -4.568e-4
-0.976, -4.570e-4
-0.977, -4.572e-4
-0.978, -4.573e-4
-0.979, -4.573e-4
-0.980, -4.571e-4
-0.981, -4.570e-4
-0.982, -4.568e-4
-0.983, -4.564e-4
-0.984, -4.560e-4
-0.985, -4.555e-4
-0.986, -4.549e-4
-0.987, -4.542e-4
-0.988, -4.535e-4
-0.989, -4.525e-4
-0.990, -4.516e-4
-0.991, -4.506e-4
-0.992, -4.494e-4
-0.993, -4.481e-4
-0.994, -4.469e-4
-0.995, -4.456e-4
-0.996, -4.440e-4
-0.997, -4.425e-4
-0.998, -4.408e-4
-0.999, -4.390e-4
-1.000, -4.373e-4
-1.001, -4.355e-4
-1.002, -4.336e-4
-1.003, -4.316e-4
-1.004, -4.296e-4
-1.005, -4.275e-4
-1.006, -4.253e-4
-1.007, -4.232e-4
-1.008, -4.210e-4
-1.009, -4.187e-4
-1.010, -4.164e-4
-1.011, -4.141e-4
-1.012, -4.118e-4
-1.013, -4.094e-4
-1.014, -4.070e-4
-1.015, -4.046e-4
-1.016, -4.022e-4
-1.017, -3.997e-4
-1.018, -3.973e-4
-1.019, -3.949e-4
-1.020, -3.924e-4
-1.021, -3.900e-4
-1.022, -3.876e-4
-1.023, -3.852e-4
-1.024, -3.829e-4
-1.025, -3.805e-4
-1.026, -3.781e-4
-1.027, -3.758e-4
-1.028, -3.735e-4
-1.029, -3.712e-4
-1.030, -3.689e-4
-1.031, -3.666e-4
-1.032, -3.644e-4
-1.033, -3.622e-4
-1.034, -3.600e-4
-1.035, -3.579e-4
-1.036, -3.558e-4
-1.037, -3.537e-4
-1.038, -3.516e-4
-1.039, -3.496e-4
-1.040, -3.476e-4
-1.041, -3.456e-4
-1.042, -3.437e-4
-1.043, -3.418e-4
-1.044, -3.399e-4
-1.045, -3.380e-4
-1.046, -3.362e-4
-1.047, -3.344e-4
-1.048, -3.326e-4
-1.049, -3.308e-4
-1.050, -3.291e-4
-1.051, -3.274e-4
-1.052, -3.257e-4
-1.053, -3.241e-4
-1.054, -3.224e-4
-1.055, -3.209e-4
-1.056, -3.193e-4
-1.057, -3.177e-4
-1.058, -3.162e-4
-1.059, -3.147e-4
-1.060, -3.132e-4
-1.061, -3.118e-4
-1.062, -3.104e-4
-1.063, -3.089e-4
-1.064, -3.075e-4
-1.065, -3.062e-4
-1.066, -3.048e-4
-1.067, -3.035e-4
-1.068, -3.021e-4
-1.069, -3.008e-4
-1.070, -2.995e-4
-1.071, -2.983e-4
-1.072, -2.970e-4
-1.073, -2.958e-4
-1.074, -2.946e-4
-1.075, -2.934e-4
-1.076, -2.923e-4
-1.077, -2.911e-4
-1.078, -2.899e-4
-1.079, -2.888e-4
-1.080, -2.877e-4
-1.081, -2.866e-4
-1.082, -2.855e-4
-1.083, -2.844e-4
-1.084, -2.833e-4
-1.085, -2.823e-4
-1.086, -2.813e-4
-1.087, -2.802e-4
-1.088, -2.792e-4
-1.089, -2.782e-4
-1.090, -2.772e-4
-1.091, -2.762e-4
-1.092, -2.753e-4
-1.093, -2.743e-4
-1.094, -2.733e-4
-1.095, -2.724e-4
-1.096, -2.715e-4
-1.097, -2.706e-4
-1.098, -2.697e-4
-1.099, -2.688e-4
-1.100, -2.679e-4
-1.101, -2.670e-4
-1.102, -2.662e-4
-1.103, -2.653e-4
-1.104, -2.645e-4
-1.105, -2.636e-4
-1.106, -2.628e-4
-1.107, -2.620e-4
-1.108, -2.612e-4
-1.109, -2.604e-4
-1.110, -2.596e-4
-1.111, -2.588e-4
-1.112, -2.581e-4
-1.113, -2.573e-4
-1.114, -2.566e-4
-1.115, -2.558e-4
-1.116, -2.551e-4
-1.117, -2.544e-4
-1.118, -2.537e-4
-1.119, -2.530e-4
-1.120, -2.522e-4
-1.121, -2.515e-4
-1.122, -2.508e-4
-1.123, -2.502e-4
-1.124, -2.495e-4
-1.125, -2.488e-4
-1.126, -2.481e-4
-1.127, -2.475e-4
-1.128, -2.468e-4
-1.129, -2.461e-4
-1.130, -2.455e-4
-1.131, -2.448e-4
-1.132, -2.442e-4
-1.133, -2.436e-4
-1.134, -2.429e-4
-1.135, -2.423e-4
-1.136, -2.417e-4
-1.137, -2.411e-4
-1.138, -2.405e-4
-1.139, -2.399e-4
-1.140, -2.393e-4
-1.141, -2.387e-4
-1.142, -2.381e-4
-1.143, -2.376e-4
-1.144, -2.370e-4
-1.145, -2.364e-4
-1.146, -2.359e-4
-1.147, -2.353e-4
-1.148, -2.348e-4
-1.149, -2.343e-4
-1.150, -2.337e-4
-1.151, -2.332e-4
-1.152, -2.326e-4
-1.153, -2.321e-4
-1.154, -2.316e-4
-1.155, -2.311e-4
-1.156, -2.306e-4
-1.157, -2.301e-4
-1.158, -2.296e-4
-1.159, -2.291e-4
-1.160, -2.286e-4
-1.161, -2.281e-4
-1.162, -2.276e-4
-1.163, -2.272e-4
-1.164, -2.267e-4
-1.165, -2.262e-4
-1.166, -2.257e-4
-1.167, -2.253e-4
-1.168, -2.248e-4
-1.169, -2.244e-4
-1.170, -2.239e-4
-1.171, -2.234e-4
-1.172, -2.230e-4
-1.173, -2.225e-4
-1.174, -2.221e-4
-1.175, -2.216e-4
-1.176, -2.212e-4
-1.177, -2.208e-4
-1.178, -2.203e-4
-1.179, -2.199e-4
-1.180, -2.195e-4
-1.181, -2.190e-4
-1.182, -2.186e-4
-1.183, -2.182e-4
-1.184, -2.178e-4
-1.185, -2.174e-4
-1.186, -2.170e-4
-1.187, -2.166e-4
-1.188, -2.162e-4
-1.189, -2.158e-4
-1.190, -2.154e-4
-1.191, -2.150e-4
-1.192, -2.146e-4
-1.193, -2.142e-4
-1.194, -2.138e-4
-1.195, -2.135e-4
-1.196, -2.131e-4
-1.197, -2.127e-4
-1.198, -2.124e-4
-1.199, -2.120e-4
-1.200, -2.115e-4
-1.199, -2.109e-4
-1.198, -2.104e-4
-1.197, -2.099e-4
-1.196, -2.094e-4
-1.195, -2.090e-4
-1.194, -2.086e-4
-1.193, -2.081e-4
-1.192, -2.077e-4
-1.191, -2.073e-4
-1.190, -2.069e-4
-1.189, -2.065e-4
-1.188, -2.062e-4
-1.187, -2.058e-4
-1.186, -2.054e-4
-1.185, -2.050e-4
-1.184, -2.046e-4
-1.183, -2.042e-4
-1.182, -2.039e-4
-1.181, -2.035e-4
-1.180, -2.032e-4
-1.179, -2.028e-4
-1.178, -2.025e-4
-1.177, -2.021e-4
-1.176, -2.018e-4
-1.175, -2.014e-4
-1.174, -2.011e-4
-1.173, -2.008e-4
-1.172, -2.004e-4
-1.171, -2.001e-4
-1.170, -1.998e-4
-1.169, -1.995e-4
-1.168, -1.992e-4
-1.167, -1.989e-4
-1.166, -1.985e-4
-1.165, -1.982e-4
-1.164, -1.979e-4
-1.163, -1.976e-4
-1.162, -1.973e-4
-1.161, -1.971e-4
-1.160, -1.968e-4
-1.159, -1.965e-4
-1.158, -1.962e-4
-1.157, -1.959e-4
-1.156, -1.956e-4
-1.155, -1.954e-4
-1.154, -1.951e-4
-1.153, -1.948e-4
-1.152, -1.945e-4
-1.151, -1.943e-4
-1.150, -1.940e-4
-1.149, -1.937e-4
-1.148, -1.934e-4
-1.147, -1.932e-4
-1.146, -1.929e-4
-1.145, -1.926e-4
-1.144, -1.923e-4
-1.143, -1.920e-4
-1.142, -1.917e-4
-1.141, -1.915e-4
-1.140, -1.912e-4
-1.139, -1.909e-4
-1.138, -1.907e-4
-1.137, -1.904e-4
-1.136, -1.901e-4
-1.135, -1.899e-4
-1.134, -1.896e-4
-1.133, -1.894e-4
-1.132, -1.891e-4
-1.131, -1.888e-4
-1.130, -1.886e-4
-1.129, -1.883e-4
-1.128, -1.881e-4
-1.127, -1.879e-4
-1.126, -1.876e-4
-1.125, -1.873e-4
-1.124, -1.871e-4
-1.123, -1.868e-4
-1.122, -1.866e-4
-1.121, -1.864e-4
-1.120, -1.861e-4
-1.119, -1.859e-4
-1.118, -1.857e-4
-1.117, -1.854e-4
-1.116, -1.852e-4
-1.115, -1.850e-4
-1.114, -1.847e-4
-1.113, -1.845e-4
-1.112, -1.843e-4
-1.111, -1.841e-4
-1.110, -1.839e-4
-1.109, -1.836e-4
-1.108, -1.834e-4
-1.107, -1.832e-4
-1.106, -1.829e-4
-1.105, -1.827e-4
-1.104, -1.825e-4
-1.103, -1.822e-4
-1.102, -1.820e-4
-1.101, -1.817e-4
-1.100, -1.815e-4
-1.099, -1.812e-4
-1.098, -1.810e-4
-1.097, -1.808e-4
-1.096, -1.805e-4
-1.095, -1.803e-4
-1.094, -1.801e-4
-1.093, -1.798e-4
-1.092, -1.796e-4
-1.091, -1.794e-4
-1.090, -1.791e-4
-1.089, -1.789e-4
-1.088, -1.787e-4
-1.087, -1.784e-4
-1.086, -1.782e-4
-1.085, -1.780e-4
-1.084, -1.778e-4
-1.083, -1.775e-4
-1.082, -1.773e-4
-1.081, -1.771e-4
-1.080, -1.769e-4
-1.079, -1.766e-4
-1.078, -1.764e-4
-1.077, -1.762e-4
-1.076, -1.760e-4
-1.075, -1.757e-4
-1.074, -1.755e-4
-1.073, -1.753e-4
-1.072, -1.750e-4
-1.071, -1.748e-4
-1.070, -1.746e-4
-1.069, -1.744e-4
-1.068, -1.741e-4
-1.067, -1.739e-4
-1.066, -1.736e-4
-1.065, -1.734e-4
-1.064, -1.731e-4
-1.063, -1.729e-4
-1.062, -1.726e-4
-1.061, -1.724e-4
-1.060, -1.721e-4
-1.059, -1.718e-4
-1.058, -1.716e-4
-1.057, -1.713e-4
-1.056, -1.711e-4
-1.055, -1.708e-4
-1.054, -1.705e-4
-1.053, -1.703e-4
-1.052, -1.700e-4
-1.051, -1.697e-4
-1.050, -1.695e-4
-1.049, -1.692e-4
-1.048, -1.689e-4
-1.047, -1.687e-4
-1.046, -1.684e-4
-1.045, -1.681e-4
-1.044, -1.678e-4
-1.043, -1.675e-4
-1.042, -1.672e-4
-1.041, -1.669e-4
-1.040, -1.666e-4
-1.039, -1.663e-4
-1.038, -1.660e-4
-1.037, -1.657e-4
-1.036, -1.653e-4
-1.035, -1.650e-4
-1.034, -1.647e-4
-1.033, -1.644e-4
-1.032, -1.640e-4
-1.031, -1.637e-4
-1.030, -1.633e-4
-1.029, -1.630e-4
-1.028, -1.626e-4
-1.027, -1.622e-4
-1.026, -1.618e-4
-1.025, -1.615e-4
-1.024, -1.610e-4
-1.023, -1.606e-4
-1.022, -1.602e-4
-1.021, -1.598e-4
-1.020, -1.594e-4
-1.019, -1.589e-4
-1.018, -1.585e-4
-1.017, -1.580e-4
-1.016, -1.576e-4
-1.015, -1.571e-4
-1.014, -1.566e-4
-1.013, -1.561e-4
-1.012, -1.556e-4
-1.011, -1.551e-4
-1.010, -1.546e-4
-1.009, -1.540e-4
-1.008, -1.535e-4
-1.007, -1.529e-4
-1.006, -1.524e-4
-1.005, -1.518e-4
-1.004, -1.512e-4
-1.003, -1.505e-4
-1.002, -1.500e-4
-1.001, -1.493e-4
-1.000, -1.486e-4
-0.999, -1.480e-4
-0.998, -1.474e-4
-0.997, -1.466e-4
-0.996, -1.459e-4
-0.995, -1.452e-4
-0.994, -1.444e-4
-0.993, -1.436e-4
-0.992, -1.429e-4
-0.991, -1.421e-4
-0.990, -1.412e-4
-0.989, -1.405e-4
-0.988, -1.396e-4
-0.987, -1.387e-4
-0.986, -1.378e-4
-0.985, -1.369e-4
-0.984, -1.359e-4
-0.983, -1.350e-4
-0.982, -1.341e-4
-0.981, -1.330e-4
-0.980, -1.320e-4
-0.979, -1.310e-4
-0.978, -1.299e-4
-0.977, -1.288e-4
-0.976, -1.277e-4
-0.975, -1.266e-4
-0.974, -1.253e-4
-0.973, -1.241e-4
-0.972, -1.229e-4
-0.971, -1.216e-4
-0.970, -1.204e-4
-0.969, -1.191e-4
-0.968, -1.178e-4
-0.967, -1.165e-4
-0.966, -1.151e-4
-0.965, -1.138e-4
-0.964, -1.123e-4
-0.963, -1.109e-4
-0.962, -1.095e-4
-0.961, -1.080e-4
-0.960, -1.064e-4
-0.959, -1.049e-4
-0.958, -1.033e-4
-0.957, -1.017e-4
-0.956, -1.001e-4
-0.955, -9.849e-5
-0.954, -9.676e-5
-0.953, -9.507e-5
-0.952, -9.341e-5
-0.951, -9.160e-5
-0.950, -8.980e-5
-0.949, -8.807e-5
-0.948, -8.622e-5
-0.947, -8.440e-5
-0.946, -8.254e-5
-0.945, -8.066e-5
-0.944, -7.865e-5
-0.943, -7.665e-5
-0.942, -7.470e-5
-0.941, -7.260e-5
-0.940, -7.050e-5
-0.939, -6.845e-5
-0.938, -6.636e-5
-0.937, -6.416e-5
-0.936, -6.199e-5
-0.935, -5.985e-5
-0.934, -5.749e-5
-0.933, -5.528e-5
-0.932, -5.307e-5
-0.931, -5.069e-5
-0.930, -4.833e-5
-0.929, -4.607e-5
-0.928, -4.376e-5
-0.927, -4.127e-5
-0.926, -3.887e-5
-0.925, -3.653e-5
-0.924, -3.400e-5
-0.923, -3.145e-5
-0.922, -2.900e-5
-0.921, -2.628e-5
-0.920, -2.368e-5
-0.919, -2.123e-5
-0.918, -1.861e-5
-0.917, -1.592e-5
-0.916, -1.327e-5
-0.915, -1.067e-5
-0.914, -7.899e-6
-0.913, -5.157e-6
-0.912, -2.533e-6
-0.911, 1.919e-7
-0.910, 3.104e-6
-0.909, 5.836e-6
-0.908, 8.685e-6
-0.907, 1.158e-5
-0.906, 1.436e-5
-0.905, 1.715e-5
-0.904, 2.011e-5
-0.903, 2.303e-5
-0.902, 2.581e-5
-0.901, 2.879e-5
-0.900, 3.180e-5
-0.899, 3.466e-5
-0.898, 3.762e-5
-0.897, 4.076e-5
-0.896, 4.354e-5
-0.895, 4.637e-5
-0.894, 4.958e-5
-0.893, 5.262e-5
-0.892, 5.554e-5
-0.891, 5.868e-5
-0.890, 6.175e-5
-0.889, 6.475e-5
-0.888, 6.785e-5
-0.887, 7.105e-5
-0.886, 7.411e-5
-0.885, 7.716e-5
-0.884, 8.037e-5
-0.883, 8.354e-5
-0.882, 8.658e-5
-0.881, 8.976e-5
-0.880, 9.304e-5
-0.879, 9.605e-5
-0.878, 9.923e-5
-0.877, 1.025e-4
-0.876, 1.055e-4
-0.875, 1.087e-4
-0.874, 1.119e-4
-0.873, 1.151e-4
-0.872, 1.182e-4
-0.871, 1.215e-4
-0.870, 1.249e-4
-0.869, 1.280e-4
-0.868, 1.312e-4
-0.867, 1.344e-4
-0.866, 1.375e-4
-0.865, 1.406e-4
-0.864, 1.439e-4
-0.863, 1.470e-4
-0.862, 1.501e-4
-0.861, 1.532e-4
-0.860, 1.564e-4
-0.859, 1.596e-4
-0.858, 1.627e-4
-0.857, 1.659e-4
-0.856, 1.690e-4
-0.855, 1.720e-4
-0.854, 1.752e-4
-0.853, 1.784e-4
-0.852, 1.813e-4
-0.851, 1.844e-4
-0.850, 1.875e-4
-0.849, 1.905e-4
-0.848, 1.935e-4
-0.847, 1.966e-4
-0.846, 1.995e-4
-0.845, 2.023e-4
-0.844, 2.052e-4
-0.843, 2.082e-4
-0.842, 2.110e-4
-0.841, 2.140e-4
-0.840, 2.170e-4
-0.839, 2.197e-4
-0.838, 2.225e-4
-0.837, 2.255e-4
-0.836, 2.283e-4
-0.835, 2.309e-4
-0.834, 2.337e-4
-0.833, 2.365e-4
-0.832, 2.391e-4
-0.831, 2.419e-4
-0.830, 2.446e-4
-0.829, 2.471e-4
-0.828, 2.496e-4
-0.827, 2.523e-4
-0.826, 2.548e-4
-0.825, 2.572e-4
-0.824, 2.597e-4
-0.823, 2.621e-4
-0.822, 2.644e-4
-0.821, 2.668e-4
-0.820, 2.691e-4
-0.819, 2.709e-4
-0.818, 2.730e-4
-0.817, 2.753e-4
-0.816, 2.774e-4
-0.815, 2.794e-4
-0.814, 2.816e-4
-0.813, 2.835e-4
-0.812, 2.854e-4
-0.811, 2.874e-4
-0.810, 2.893e-4
-0.809, 2.910e-4
-0.808, 2.928e-4
-0.807, 2.945e-4
-0.806, 2.961e-4
-0.805, 2.976e-4
-0.804, 2.992e-4
-0.803, 3.006e-4
-0.802, 3.019e-4
-0.801, 3.033e-4
-0.800, 3.046e-4
-0.799, 3.057e-4
-0.798, 3.068e-4
-0.797, 3.080e-4
-0.796, 3.089e-4
-0.795, 3.098e-4
-0.794, 3.107e-4
-0.793, 3.113e-4
-0.792, 3.120e-4
-0.791, 3.127e-4
-0.790, 3.133e-4
-0.789, 3.136e-4
-0.788, 3.141e-4
-0.787, 3.144e-4
-0.786, 3.146e-4
-0.785, 3.147e-4
-0.784, 3.149e-4
-0.783, 3.148e-4
-0.782, 3.147e-4
-0.781, 3.146e-4
-0.780, 3.144e-4
-0.779, 3.140e-4
-0.778, 3.135e-4
-0.777, 3.130e-4
-0.776, 3.124e-4
-0.775, 3.116e-4
-0.774, 3.109e-4
-0.773, 3.100e-4
-0.772, 3.090e-4
-0.771, 3.080e-4
-0.770, 3.069e-4
-0.769, 3.056e-4
-0.768, 3.044e-4
-0.767, 3.032e-4
-0.766, 3.017e-4
-0.765, 3.001e-4
-0.764, 2.986e-4
-0.763, 2.970e-4
-0.762, 2.952e-4
-0.761, 2.934e-4
-0.760, 2.916e-4
-0.759, 2.897e-4
-0.758, 2.877e-4
-0.757, 2.858e-4
-0.756, 2.836e-4
-0.755, 2.815e-4
-0.754, 2.795e-4
-0.753, 2.773e-4
-0.752, 2.751e-4
-0.751, 2.729e-4
-0.750, 2.707e-4
-0.749, 2.684e-4
-0.748, 2.661e-4
-0.747, 2.639e-4
-0.746, 2.616e-4
-0.745, 2.593e-4
-0.744, 2.570e-4
-0.743, 2.548e-4
-0.742, 2.523e-4
-0.741, 2.501e-4
-0.740, 2.479e-4
-0.739, 2.456e-4
-0.738, 2.434e-4
-0.737, 2.412e-4
-0.736, 2.390e-4
-0.735, 2.368e-4
-0.734, 2.347e-4
-0.733, 2.326e-4
-0.732, 2.304e-4
-0.731, 2.284e-4
-0.730, 2.264e-4
-0.729, 2.243e-4
-0.728, 2.223e-4
-0.727, 2.203e-4
-0.726, 2.184e-4
-0.725, 2.164e-4
-0.724, 2.145e-4
-0.723, 2.127e-4
-0.722, 2.108e-4
-0.721, 2.090e-4
-0.720, 2.072e-4
-0.719, 2.054e-4
-0.718, 2.036e-4
-0.717, 2.019e-4
-0.716, 2.002e-4
-0.715, 1.986e-4
-0.714, 1.969e-4
-0.713, 1.953e-4
-0.712, 1.937e-4
-0.711, 1.921e-4
-0.710, 1.905e-4
-0.709, 1.890e-4
-0.708, 1.875e-4
-0.707, 1.860e-4
-0.706, 1.846e-4
-0.705, 1.832e-4
-0.704, 1.818e-4
-0.703, 1.804e-4
-0.702, 1.790e-4
-0.701, 1.777e-4
-0.700, 1.763e-4
-0.699, 1.750e-4
-0.698, 1.737e-4
-0.697, 1.725e-4
-0.696, 1.712e-4
-0.695, 1.700e-4
-0.694, 1.687e-4
-0.693, 1.675e-4
-0.692, 1.664e-4
-0.691, 1.652e-4
-0.690, 1.640e-4
-0.689, 1.629e-4
-0.688, 1.618e-4
-0.687, 1.607e-4
-0.686, 1.596e-4
-0.685, 1.585e-4
-0.684, 1.575e-4
-0.683, 1.564e-4
-0.682, 1.554e-4
-0.681, 1.544e-4
-0.680, 1.534e-4
-0.679, 1.524e-4
-0.678, 1.514e-4
-0.677, 1.504e-4
-0.676, 1.495e-4
-0.675, 1.485e-4
-0.674, 1.476e-4
-0.673, 1.467e-4
-0.672, 1.458e-4
-0.671, 1.449e-4
-0.670, 1.440e-4
-0.669, 1.431e-4
-0.668, 1.423e-4
-0.667, 1.414e-4
-0.666, 1.406e-4
-0.665, 1.397e-4
-0.664, 1.389e-4
-0.663, 1.381e-4
-0.662, 1.373e-4
-0.661, 1.365e-4
-0.660, 1.357e-4
-0.659, 1.350e-4
-0.658, 1.342e-4
-0.657, 1.334e-4
-0.656, 1.327e-4
-0.655, 1.319e-4
-0.654, 1.312e-4
-0.653, 1.305e-4
-0.652, 1.298e-4
-0.651, 1.290e-4
-0.650, 1.283e-4
-0.649, 1.276e-4
-0.648, 1.270e-4
-0.647, 1.263e-4
-0.646, 1.256e-4
-0.645, 1.250e-4
-0.644, 1.243e-4
-0.643, 1.237e-4
-0.642, 1.230e-4
-0.641, 1.224e-4
-0.640, 1.217e-4
-0.639, 1.211e-4
-0.638, 1.205e-4
-0.637, 1.199e-4
-0.636, 1.193e-4
-0.635, 1.187e-4
-0.634, 1.181e-4
-0.633, 1.175e-4
-0.632, 1.169e-4
-0.631, 1.163e-4
-0.630, 1.158e-4
-0.629, 1.152e-4
-0.628, 1.146e-4
-0.627, 1.141e-4
-0.626, 1.135e-4
-0.625, 1.130e-4
-0.624, 1.124e-4
-0.623, 1.119e-4
-0.622, 1.113e-4
-0.621, 1.108e-4
-0.620, 1.103e-4
-0.619, 1.098e-4
-0.618, 1.093e-4
-0.617, 1.088e-4
-0.616, 1.083e-4
-0.615, 1.078e-4
-0.614, 1.073e-4
-0.613, 1.068e-4
-0.612, 1.063e-4
-0.611, 1.058e-4
-0.610, 1.053e-4
-0.609, 1.049e-4
-0.608, 1.044e-4
-0.607, 1.039e-4
-0.606, 1.035e-4
-0.605, 1.030e-4
-0.604, 1.026e-4
-0.603, 1.021e-4
-0.602, 1.017e-4
-0.601, 1.012e-4
-0.600, 1.008e-4
-0.599, 1.004e-4
-0.598, 9.991e-5
-0.597, 9.948e-5
-0.596, 9.907e-5
-0.595, 9.864e-5
-0.594, 9.821e-5
-0.593, 9.779e-5
-0.592, 9.738e-5
-0.591, 9.695e-5
-0.590, 9.655e-5
-0.589, 9.615e-5
-0.588, 9.573e-5
-0.587, 9.534e-5
-0.586, 9.495e-5
-0.585, 9.456e-5
-0.584, 9.416e-5
-0.583, 9.378e-5
-0.582, 9.340e-5
-0.581, 9.301e-5
-0.580, 9.264e-5
-0.579, 9.227e-5
-0.578, 9.189e-5
-0.577, 9.152e-5
-0.576, 9.117e-5
-0.575, 9.080e-5
-0.574, 9.042e-5
-0.573, 9.007e-5
-0.572, 8.971e-5
-0.571, 8.934e-5
-0.570, 8.899e-5
-0.569, 8.864e-5
-0.568, 8.828e-5
-0.567, 8.794e-5
-0.566, 8.761e-5
-0.565, 8.726e-5
-0.564, 8.692e-5
-0.563, 8.659e-5
-0.562, 8.626e-5
-0.561, 8.593e-5
-0.560, 8.560e-5
-0.559, 8.529e-5
-0.558, 8.496e-5
-0.557, 8.464e-5
-0.556, 8.433e-5
-0.555, 8.401e-5
-0.554, 8.368e-5
-0.553, 8.338e-5
-0.552, 8.307e-5
-0.551, 8.274e-5
-0.550, 8.244e-5
-0.549, 8.214e-5
-0.548, 8.182e-5
-0.547, 8.152e-5
-0.546, 8.122e-5
-0.545, 8.092e-5
-0.544, 8.062e-5
-0.543, 8.033e-5
-0.542, 8.004e-5
-0.541, 7.974e-5
-0.540, 7.946e-5
-0.539, 7.918e-5
-0.538, 7.888e-5
-0.537, 7.860e-5
-0.536, 7.833e-5
-0.535, 7.805e-5
-0.534, 7.775e-5
-0.533, 7.749e-5
-0.532, 7.721e-5
-0.531, 7.693e-5
-0.530, 7.665e-5
-0.529, 7.639e-5
-0.528, 7.611e-5
-0.527, 7.584e-5
-0.526, 7.559e-5
-0.525, 7.531e-5
-0.524, 7.504e-5
-0.523, 7.479e-5
-0.522, 7.453e-5
-0.521, 7.427e-5
-0.520, 7.402e-5
-0.519, 7.377e-5
-0.518, 7.351e-5
-0.517, 7.327e-5
-0.516, 7.303e-5
-0.515, 7.278e-5
-0.514, 7.252e-5
-0.513, 7.229e-5
-0.512, 7.205e-5
-0.511, 7.180e-5
-0.510, 7.156e-5
-0.509, 7.133e-5
-0.508, 7.108e-5
-0.507, 7.084e-5
-0.506, 7.061e-5
-0.505, 7.036e-5
-0.504, 7.012e-5
-0.503, 6.990e-5
-0.502, 6.967e-5
-0.501, 6.943e-5
-0.500, 6.911e-5
-0.501, 6.877e-5
-0.502, 6.848e-5
-0.503, 6.821e-5
-0.504, 6.796e-5
-0.505, 6.770e-5
-0.506, 6.744e-5
-0.507, 6.720e-5
-0.508, 6.696e-5
-0.509, 6.671e-5
-0.510, 6.647e-5
-0.511, 6.624e-5
-0.512, 6.599e-5
-0.513, 6.576e-5
-0.514, 6.554e-5
-0.515, 6.530e-5
-0.516, 6.507e-5
-0.517, 6.485e-5
-0.518, 6.463e-5
-0.519, 6.440e-5
-0.520, 6.419e-5
-0.521, 6.398e-5
-0.522, 6.375e-5
-0.523, 6.353e-5
-0.524, 6.333e-5
-0.525, 6.311e-5
-0.526, 6.289e-5
-0.527, 6.269e-5
-0.528, 6.248e-5
-0.529, 6.225e-5
-0.530, 6.205e-5
-0.531, 6.185e-5
-0.532, 6.163e-5
-0.533, 6.143e-5
-0.534, 6.123e-5
-0.535, 6.103e-5
-0.536, 6.082e-5
-0.537, 6.063e-5
-0.538, 6.044e-5
-0.539, 6.023e-5
-0.540, 6.004e-5
-0.541, 5.986e-5
-0.542, 5.966e-5
-0.543, 5.946e-5
-0.544, 5.928e-5
-0.545, 5.909e-5
-0.546, 5.889e-5
-0.547, 5.871e-5
-0.548, 5.852e-5
-0.549, 5.832e-5
-0.550, 5.814e-5
-0.551, 5.796e-5
-0.552, 5.776e-5
-0.553, 5.757e-5
-0.554, 5.739e-5
-0.555, 5.720e-5
-0.556, 5.700e-5
-0.557, 5.683e-5
-0.558, 5.665e-5
-0.559, 5.646e-5
-0.560, 5.628e-5
-0.561, 5.612e-5
-0.562, 5.593e-5
-0.563, 5.575e-5
-0.564, 5.559e-5
-0.565, 5.541e-5
-0.566, 5.523e-5
-0.567, 5.507e-5
-0.568, 5.490e-5
-0.569, 5.473e-5
-0.570, 5.456e-5
-0.571, 5.440e-5
-0.572, 5.422e-5
-0.573, 5.405e-5
-0.574, 5.390e-5
-0.575, 5.372e-5
-0.576, 5.355e-5
-0.577, 5.339e-5
-0.578, 5.323e-5
-0.579, 5.306e-5
-0.580, 5.289e-5
-0.581, 5.274e-5
-0.582, 5.257e-5
-0.583, 5.241e-5
-0.584, 5.226e-5
-0.585, 5.209e-5
-0.586, 5.192e-5
-0.587, 5.177e-5
-0.588, 5.162e-5
-0.589, 5.145e-5
-0.590, 5.129e-5
-0.591, 5.114e-5
-0.592, 5.097e-5
-0.593, 5.081e-5
-0.594, 5.066e-5
-0.595, 5.050e-5
-0.596, 5.034e-5
-0.597, 5.019e-5
-0.598, 5.004e-5
-0.599, 4.988e-5
-0.600, 4.973e-5
-0.601, 4.959e-5
-0.602, 4.943e-5
-0.603, 4.928e-5
-0.604, 4.914e-5
-0.605, 4.899e-5
-0.606, 4.884e-5
-0.607, 4.871e-5
-0.608, 4.856e-5
-0.609, 4.841e-5
-0.610, 4.826e-5
-0.611, 4.813e-5
-0.612, 4.797e-5
-0.613, 4.782e-5
-0.614, 4.769e-5
-0.615, 4.754e-5
-0.616, 4.738e-5
-0.617, 4.724e-5
-0.618, 4.710e-5
-0.619, 4.695e-5
-0.620, 4.682e-5
-0.621, 4.668e-5
-0.622, 4.653e-5
-0.623, 4.639e-5
-0.624, 4.626e-5
-0.625, 4.612e-5
-0.626, 4.598e-5
-0.627, 4.585e-5
-0.628, 4.571e-5
-0.629, 4.557e-5
-0.630, 4.544e-5
-0.631, 4.531e-5
-0.632, 4.516e-5
-0.633, 4.503e-5
-0.634, 4.490e-5
-0.635, 4.476e-5
-0.636, 4.462e-5
-0.637, 4.449e-5
-0.638, 4.435e-5
-0.639, 4.421e-5
-0.640, 4.408e-5
-0.641, 4.395e-5
-0.642, 4.380e-5
-0.643, 4.366e-5
-0.644, 4.353e-5
-0.645, 4.339e-5
-0.646, 4.325e-5
-0.647, 4.313e-5
-0.648, 4.300e-5
-0.649, 4.285e-5
-0.650, 4.273e-5
-0.651, 4.260e-5
-0.652, 4.246e-5
-0.653, 4.233e-5
-0.654, 4.220e-5
-0.655, 4.207e-5
-0.656, 4.193e-5
-0.657, 4.181e-5
-0.658, 4.167e-5
-0.659, 4.153e-5
-0.660, 4.140e-5
-0.661, 4.127e-5
-0.662, 4.113e-5
-0.663, 4.100e-5
-0.664, 4.087e-5
-0.665, 4.073e-5
-0.666, 4.059e-5
-0.667, 4.046e-5
-0.668, 4.032e-5
-0.669, 4.018e-5
-0.670, 4.005e-5
-0.671, 3.991e-5
-0.672, 3.977e-5
-0.673, 3.963e-5
-0.674, 3.949e-5
-0.675, 3.935e-5
-0.676, 3.920e-5
-0.677, 3.906e-5
-0.678, 3.891e-5
-0.679, 3.876e-5
-0.680, 3.862e-5
-0.681, 3.848e-5
-0.682, 3.832e-5
-0.683, 3.818e-5
-0.684, 3.804e-5
-0.685, 3.788e-5
-0.686, 3.773e-5
-0.687, 3.759e-5
-0.688, 3.743e-5
-0.689, 3.728e-5
-0.690, 3.713e-5
-0.691, 3.699e-5
-0.692, 3.682e-5
-0.693, 3.666e-5
-0.694, 3.651e-5
-0.695, 3.634e-5
-0.696, 3.617e-5
-0.697, 3.601e-5
-0.698, 3.584e-5
-0.699, 3.565e-5
-0.700, 3.549e-5
-0.701, 3.531e-5
-0.702, 3.513e-5
-0.703, 3.494e-5
-0.704, 3.477e-5
-0.705, 3.457e-5
-0.706, 3.438e-5
-0.707, 3.419e-5
-0.708, 3.399e-5
-0.709, 3.380e-5
-0.710, 3.360e-5
-0.711, 3.340e-5
-0.712, 3.318e-5
-0.713, 3.298e-5
-0.714, 3.277e-5
-0.715, 3.254e-5
-0.716, 3.232e-5
-0.717, 3.208e-5
-0.718, 3.184e-5
-0.719, 3.161e-5
-0.720, 3.138e-5
-0.721, 3.113e-5
-0.722, 3.088e-5
-0.723, 3.063e-5
-0.724, 3.038e-5
-0.725, 3.008e-5
-0.726, 2.983e-5
-0.727, 2.955e-5
-0.728, 2.925e-5
-0.729, 2.898e-5
-0.730, 2.868e-5
-0.731, 2.838e-5
-0.732, 2.807e-5
-0.733, 2.777e-5
-0.734, 2.742e-5
-0.735, 2.709e-5
-0.736, 2.676e-5
-0.737, 2.642e-5
-0.738, 2.604e-5
-0.739, 2.568e-5
-0.740, 2.534e-5
-0.741, 2.491e-5
-0.742, 2.456e-5
-0.743, 2.419e-5
-0.744, 2.374e-5
-0.745, 2.330e-5
-0.746, 2.289e-5
-0.747, 2.244e-5
-0.748, 2.196e-5
-0.749, 2.152e-5
-0.750, 2.105e-5
-0.751, 2.053e-5
-0.752, 2.003e-5
-0.753, 1.955e-5
-0.754, 1.899e-5
-0.755, 1.844e-5
-0.756, 1.789e-5
-0.757, 1.732e-5
-0.758, 1.671e-5
-0.759, 1.615e-5
-0.760, 1.552e-5
-0.761, 1.487e-5
-0.762, 1.423e-5
-0.763, 1.359e-5
-0.764, 1.289e-5
-0.765, 1.217e-5
-0.766, 1.149e-5
-0.767, 1.074e-5
-0.768, 9.861e-6
-0.769, 9.146e-6
-0.770, 8.355e-6
-0.771, 7.534e-6
-0.772, 6.727e-6
-0.773, 5.883e-6
-0.774, 4.970e-6
-0.775, 4.090e-6
-0.776, 3.232e-6
-0.777, 2.281e-6
-0.778, 1.286e-6
-0.779, 3.254e-7
-0.780, -6.567e-7
-0.781, -1.736e-6
-0.782, -2.779e-6
-0.783, -3.816e-6
-0.784, -4.952e-6
-0.785, -6.070e-6
-0.786, -7.194e-6
-0.787, -8.327e-6
-0.788, -9.561e-6
-0.789, -1.079e-5
-0.790, -1.200e-5
-0.791, -1.334e-5
-0.792, -1.466e-5
-0.793, -1.585e-5
-0.794, -1.717e-5
-0.795, -1.863e-5
-0.796, -1.999e-5
-0.797, -2.139e-5
-0.798, -2.294e-5
-0.799, -2.441e-5
-0.800, -2.588e-5
-0.801, -2.753e-5
-0.802, -2.910e-5
-0.803, -3.064e-5
-0.804, -3.227e-5
-0.805, -3.403e-5
-0.806, -3.562e-5
-0.807, -3.734e-5
-0.808, -3.920e-5
-0.809, -4.090e-5
-0.810, -4.265e-5
-0.811, -4.457e-5
-0.812, -4.643e-5
-0.813, -4.822e-5
-0.814, -5.019e-5
-0.815, -5.219e-5
-0.816, -5.410e-5
-0.817, -5.606e-5
-0.818, -5.823e-5
-0.819, -5.999e-5
-0.820, -6.185e-5
-0.821, -6.413e-5
-0.822, -6.626e-5
-0.823, -6.835e-5
-0.824, -7.066e-5
-0.825, -7.291e-5
-0.826, -7.510e-5
-0.827, -7.739e-5
-0.828, -7.977e-5
-0.829, -8.208e-5
-0.830, -8.440e-5
-0.831, -8.686e-5
-0.832, -8.932e-5
-0.833, -9.165e-5
-0.834, -9.419e-5
-0.835, -9.674e-5
-0.836, -9.912e-5
-0.837, -1.017e-4
-0.838, -1.043e-4
-0.839, -1.068e-4
-0.840, -1.094e-4
-0.841, -1.121e-4
-0.842, -1.148e-4
-0.843, -1.173e-4
-0.844, -1.201e-4
-0.845, -1.227e-4
-0.846, -1.253e-4
-0.847, -1.281e-4
-0.848, -1.310e-4
-0.849, -1.337e-4
-0.850, -1.365e-4
-0.851, -1.394e-4
-0.852, -1.423e-4
-0.853, -1.451e-4
-0.854, -1.480e-4
-0.855, -1.510e-4
-0.856, -1.539e-4
-0.857, -1.568e-4
-0.858, -1.599e-4
-0.859, -1.628e-4
-0.860, -1.658e-4
-0.861, -1.689e-4
-0.862, -1.719e-4
-0.863, -1.749e-4
-0.864, -1.780e-4
-0.865, -1.810e-4
-0.866, -1.841e-4
-0.867, -1.871e-4
-0.868, -1.904e-4
-0.869, -1.934e-4
-0.870, -1.965e-4
-0.871, -1.999e-4
-0.872, -2.030e-4
-0.873, -2.061e-4
-0.874, -2.093e-4
-0.875, -2.126e-4
-0.876, -2.156e-4
-0.877, -2.188e-4
-0.878, -2.221e-4
-0.879, -2.252e-4
-0.880, -2.283e-4
-0.881, -2.316e-4
-0.882, -2.349e-4
-0.883, -2.381e-4
-0.884, -2.413e-4
-0.885, -2.447e-4
-0.886, -2.478e-4
-0.887, -2.510e-4
-0.888, -2.543e-4
-0.889, -2.575e-4
-0.890, -2.606e-4
-0.891, -2.640e-4
-0.892, -2.672e-4
-0.893, -2.703e-4
-0.894, -2.736e-4
-0.895, -2.769e-4
-0.896, -2.799e-4
-0.897, -2.831e-4
-0.898, -2.865e-4
-0.899, -2.896e-4
-0.900, -2.927e-4
-0.901, -2.961e-4
-0.902, -2.993e-4
-0.903, -3.023e-4
-0.904, -3.056e-4
-0.905, -3.088e-4
-0.906, -3.119e-4
-0.907, -3.150e-4
-0.908, -3.183e-4
-0.909, -3.214e-4
-0.910, -3.245e-4
-0.911, -3.276e-4
-0.912, -3.307e-4
-0.913, -3.337e-4
-0.914, -3.369e-4
-0.915, -3.400e-4
-0.916, -3.428e-4
-0.917, -3.459e-4
-0.918, -3.490e-4
-0.919, -3.519e-4
-0.920, -3.548e-4
-0.921, -3.578e-4
-0.922, -3.609e-4
-0.923, -3.637e-4
-0.924, -3.666e-4
-0.925, -3.696e-4
-0.926, -3.722e-4
-0.927, -3.750e-4
-0.928, -3.779e-4
-0.929, -3.805e-4
-0.930, -3.833e-4
-0.931, -3.860e-4
-0.932, -3.886e-4
-0.933, -3.912e-4
-0.934, -3.937e-4
-0.935, -3.964e-4
-0.936, -3.988e-4
-0.937, -4.013e-4
-0.938, -4.038e-4
-0.939, -4.062e-4
-0.940, -4.085e-4
-0.941, -4.109e-4
-0.942, -4.132e-4
-0.943, -4.153e-4
-0.944, -4.175e-4
-0.945, -4.197e-4
-0.946, -4.218e-4
-0.947, -4.237e-4
-0.948, -4.257e-4
-0.949, -4.276e-4
-0.950, -4.295e-4
-0.951, -4.314e-4
-0.952, -4.333e-4
-0.953, -4.349e-4
-0.954, -4.367e-4
-0.955, -4.384e-4
-0.956, -4.399e-4
-0.957, -4.414e-4
-0.958, -4.429e-4
-0.959, -4.443e-4
-0.960, -4.456e-4
-0.961, -4.470e-4
-0.962, -4.482e-4
-0.963, -4.492e-4
-0.964, -4.503e-4
-0.965, -4.514e-4
-0.966, -4.522e-4
-0.967, -4.530e-4
-0.968, -4.539e-4
-0.969, -4.546e-4
-0.970, -4.551e-4
-0.971, -4.557e-4
-0.972, -4.561e-4
-0.973, -4.567e-4
-0.974, -4.570e-4
-0.975, -4.573e-4
-0.976, -4.573e-4
-0.977, -4.573e-4
-0.978, -4.574e-4
-0.979, -4.572e-4
-0.980, -4.568e-4
-0.981, -4.566e-4
-0.982, -4.562e-4
-0.983, -4.557e-4
-0.984, -4.551e-4
-0.985, -4.545e-4
-0.986, -4.537e-4
-0.987, -4.528e-4
-0.988, -4.520e-4
-0.989, -4.509e-4
-0.990, -4.497e-4
-0.991, -4.486e-4
-0.992, -4.473e-4
-0.993, -4.459e-4
-0.994, -4.445e-4
-0.995, -4.430e-4
-0.996, -4.413e-4
-0.997, -4.397e-4
-0.998, -4.379e-4
-0.999, -4.360e-4
-1.000, -4.341e-4
-1.001, -4.323e-4
-1.002, -4.302e-4
-1.003, -4.281e-4
-1.004, -4.260e-4
-1.005, -4.239e-4
-1.006, -4.216e-4
-1.007, -4.194e-4
-1.008, -4.172e-4
-1.009, -4.148e-4
-1.010, -4.125e-4
-1.011, -4.102e-4
-1.012, -4.078e-4
-1.013, -4.054e-4
-1.014, -4.029e-4
-1.015, -4.005e-4
-1.016, -3.981e-4
-1.017, -3.956e-4
-1.018, -3.932e-4
-1.019, -3.908e-4
-1.020, -3.883e-4
-1.021, -3.860e-4
-1.022, -3.836e-4
-1.023, -3.812e-4
-1.024, -3.788e-4
-1.025, -3.765e-4
-1.026, -3.741e-4
-1.027, -3.718e-4
-1.028, -3.695e-4
-1.029, -3.673e-4
-1.030, -3.650e-4
-1.031, -3.628e-4
-1.032, -3.606e-4
-1.033, -3.584e-4
-1.034, -3.563e-4
-1.035, -3.543e-4
-1.036, -3.521e-4
-1.037, -3.501e-4
-1.038, -3.481e-4
-1.039, -3.462e-4
-1.040, -3.442e-4
-1.041, -3.423e-4
-1.042, -3.404e-4
-1.043, -3.385e-4
-1.044, -3.367e-4
-1.045, -3.349e-4
-1.046, -3.331e-4
-1.047, -3.313e-4
-1.048, -3.296e-4
-1.049, -3.279e-4
-1.050, -3.261e-4
-1.051, -3.245e-4
-1.052, -3.229e-4
-1.053, -3.213e-4
-1.054, -3.197e-4
-1.055, -3.181e-4
-1.056, -3.166e-4
-1.057, -3.151e-4
-1.058, -3.136e-4
-1.059, -3.121e-4
-1.060, -3.106e-4
-1.061, -3.092e-4
-1.062, -3.078e-4
-1.063, -3.064e-4
-1.064, -3.050e-4
-1.065, -3.037e-4
-1.066, -3.023e-4
-1.067, -3.010e-4
-1.068, -2.998e-4
-1.069, -2.985e-4
-1.070, -2.972e-4
-1.071, -2.960e-4
-1.072, -2.948e-4
-1.073, -2.936e-4
-1.074, -2.924e-4
-1.075, -2.913e-4
-1.076, -2.901e-4
-1.077, -2.890e-4
-1.078, -2.878e-4
-1.079, -2.867e-4
-1.080, -2.856e-4
-1.081, -2.846e-4
-1.082, -2.835e-4
-1.083, -2.824e-4
-1.084, -2.814e-4
-1.085, -2.804e-4
-1.086, -2.793e-4
-1.087, -2.783e-4
-1.088, -2.773e-4
-1.089, -2.763e-4
-1.090, -2.754e-4
-1.091, -2.744e-4
-1.092, -2.734e-4
-1.093, -2.725e-4
-1.094, -2.716e-4
-1.095, -2.707e-4
-1.096, -2.698e-4
-1.097, -2.688e-4
-1.098, -2.680e-4
-1.099, -2.671e-4
-1.100, -2.662e-4
-1.101, -2.653e-4
-1.102, -2.645e-4
-1.103, -2.637e-4
-1.104, -2.628e-4
-1.105, -2.620e-4
-1.106, -2.612e-4
-1.107, -2.604e-4
-1.108, -2.596e-4
-1.109, -2.588e-4
-1.110, -2.581e-4
-1.111, -2.573e-4
-1.112, -2.566e-4
-1.113, -2.558e-4
-1.114, -2.550e-4
-1.115, -2.543e-4
-1.116, -2.536e-4
-1.117, -2.529e-4
-1.118, -2.522e-4
-1.119, -2.515e-4
-1.120, -2.508e-4
-1.121, -2.501e-4
-1.122, -2.494e-4
-1.123, -2.487e-4
-1.124, -2.480e-4
-1.125, -2.474e-4
-1.126, -2.467e-4
-1.127, -2.461e-4
-1.128, -2.454e-4
-1.129, -2.448e-4
-1.130, -2.441e-4
-1.131, -2.435e-4
-1.132, -2.429e-4
-1.133, -2.422e-4
-1.134, -2.416e-4
-1.135, -2.410e-4
-1.136, -2.404e-4
-1.137, -2.398e-4
-1.138, -2.392e-4
-1.139, -2.387e-4
-1.140, -2.381e-4
-1.141, -2.375e-4
-1.142, -2.369e-4
-1.143, -2.363e-4
-1.144, -2.358e-4
-1.145, -2.352e-4
-1.146, -2.347e-4
-1.147, -2.341e-4
-1.148, -2.336e-4
-1.149, -2.330e-4
-1.150, -2.325e-4
-1.151, -2.319e-4
-1.152, -2.314e-4
-1.153, -2.309e-4
-1.154, -2.304e-4
-1.155, -2.299e-4
-1.156, -2.294e-4
-1.157, -2.289e-4
-1.158, -2.284e-4
-1.159, -2.279e-4
-1.160, -2.274e-4
-1.161, -2.270e-4
-1.162, -2.265e-4
-1.163, -2.260e-4
-1.164, -2.256e-4
-1.165, -2.251e-4
-1.166, -2.246e-4
-1.167, -2.242e-4
-1.168, -2.237e-4
-1.169, -2.233e-4
-1.170, -2.228e-4
-1.171, -2.224e-4
-1.172, -2.219e-4
-1.173, -2.215e-4
-1.174, -2.210e-4
-1.175, -2.206e-4
-1.176, -2.201e-4
-1.177, -2.197e-4
-1.178, -2.193e-4
-1.179, -2.189e-4
-1.180, -2.184e-4
-1.181, -2.180e-4
-1.182, -2.176e-4
-1.183, -2.172e-4
-1.184, -2.168e-4
-1.185, -2.164e-4
-1.186, -2.160e-4
-1.187, -2.156e-4
-1.188, -2.152e-4
-1.189, -2.148e-4
-1.190, -2.144e-4
-1.191, -2.140e-4
-1.192, -2.136e-4
-1.193, -2.133e-4
-1.194, -2.129e-4
-1.195, -2.125e-4
-1.196, -2.122e-4
-1.197, -2.118e-4
-1.198, -2.114e-4
-1.199, -2.111e-4
-1.200, -2.106e-4
-1.199, -2.099e-4
-1.198, -2.094e-4
-1.197, -2.089e-4
-1.196, -2.084e-4
-1.195, -2.080e-4
-1.194, -2.076e-4
-1.193, -2.071e-4
-1.192, -2.067e-4
-1.191, -2.063e-4
-1.190, -2.059e-4
-1.189, -2.055e-4
-1.188, -2.052e-4
-1.187, -2.048e-4
-1.186, -2.044e-4
-1.185, -2.040e-4
-1.184, -2.037e-4
-1.183, -2.033e-4
-1.182, -2.030e-4
-1.181, -2.026e-4
-1.180, -2.023e-4
-1.179, -2.019e-4
-1.178, -2.016e-4
-1.177, -2.013e-4
-1.176, -2.009e-4
-1.175, -2.006e-4
-1.174, -2.003e-4
-1.173, -1.999e-4
-1.172, -1.996e-4
-1.171, -1.993e-4
-1.170, -1.990e-4
-1.169, -1.987e-4
-1.168, -1.983e-4
-1.167, -1.980e-4
-1.166, -1.977e-4
-1.165, -1.974e-4
-1.164, -1.971e-4
-1.163, -1.968e-4
-1.162, -1.965e-4
-1.161, -1.962e-4
-1.160, -1.959e-4
-1.159, -1.957e-4
-1.158, -1.954e-4
-1.157, -1.951e-4
-1.156, -1.948e-4
-1.155, -1.945e-4
-1.154, -1.942e-4
-1.153, -1.939e-4
-1.152, -1.937e-4
-1.151, -1.934e-4
-1.150, -1.931e-4
-1.149, -1.928e-4
-1.148, -1.925e-4
-1.147, -1.923e-4
-1.146, -1.920e-4
-1.145, -1.917e-4
-1.144, -1.915e-4
-1.143, -1.912e-4
-1.142, -1.909e-4
-1.141, -1.906e-4
-1.140, -1.904e-4
-1.139, -1.901e-4
-1.138, -1.899e-4
-1.137, -1.896e-4
-1.136, -1.894e-4
-1.135, -1.891e-4
-1.134, -1.889e-4
-1.133, -1.886e-4
-1.132, -1.884e-4
-1.131, -1.881e-4
-1.130, -1.879e-4
-1.129, -1.876e-4
-1.128, -1.874e-4
-1.127, -1.871e-4
-1.126, -1.869e-4
-1.125, -1.866e-4
-1.124, -1.864e-4
-1.123, -1.861e-4
-1.122, -1.859e-4
-1.121, -1.856e-4
-1.120, -1.854e-4
-1.119, -1.852e-4
-1.118, -1.849e-4
-1.117, -1.847e-4
-1.116, -1.845e-4
-1.115, -1.842e-4
-1.114, -1.840e-4
-1.113, -1.838e-4
-1.112, -1.835e-4
-1.111, -1.833e-4
-1.110, -1.831e-4
-1.109, -1.828e-4
-1.108, -1.826e-4
-1.107, -1.824e-4
-1.106, -1.821e-4
-1.105, -1.819e-4
-1.104, -1.816e-4
-1.103, -1.814e-4
-1.102, -1.812e-4
-1.101, -1.810e-4
-1.100, -1.807e-4
-1.099, -1.805e-4
-1.098, -1.803e-4
-1.097, -1.801e-4
-1.096, -1.798e-4
-1.095, -1.796e-4
-1.094, -1.794e-4
-1.093, -1.792e-4
-1.092, -1.790e-4
-1.091, -1.788e-4
-1.090, -1.785e-4
-1.089, -1.783e-4
-1.088, -1.781e-4
-1.087, -1.779e-4
-1.086, -1.776e-4
-1.085, -1.774e-4
-1.084, -1.772e-4
-1.083, -1.770e-4
-1.082, -1.767e-4
-1.081, -1.765e-4
-1.080, -1.763e-4
-1.079, -1.760e-4
-1.078, -1.758e-4
-1.077, -1.756e-4
-1.076, -1.753e-4
-1.075, -1.751e-4
-1.074, -1.748e-4
-1.073, -1.746e-4
-1.072, -1.744e-4
-1.071, -1.741e-4
-1.070, -1.739e-4
-1.069, -1.737e-4
-1.068, -1.734e-4
-1.067, -1.732e-4
-1.066, -1.730e-4
-1.065, -1.727e-4
-1.064, -1.725e-4
-1.063, -1.722e-4
-1.062, -1.720e-4
-1.061, -1.718e-4
-1.060, -1.715e-4
-1.059, -1.713e-4
-1.058, -1.710e-4
-1.057, -1.708e-4
-1.056, -1.705e-4
-1.055, -1.703e-4
-1.054, -1.700e-4
-1.053, -1.698e-4
-1.052, -1.695e-4
-1.051, -1.693e-4
-1.050, -1.690e-4
-1.049, -1.688e-4
-1.048, -1.685e-4
-1.047, -1.682e-4
-1.046, -1.680e-4
-1.045, -1.677e-4
-1.044, -1.674e-4
-1.043, -1.671e-4
-1.042, -1.668e-4
-1.041, -1.665e-4
-1.040, -1.662e-4
-1.039, -1.659e-4
-1.038, -1.656e-4
-1.037, -1.653e-4
-1.036, -1.650e-4
-1.035, -1.646e-4
-1.034, -1.643e-4
-1.033, -1.640e-4
-1.032, -1.637e-4
-1.031, -1.633e-4
-1.030, -1.630e-4
-1.029, -1.627e-4
-1.028, -1.623e-4
-1.027, -1.619e-4
-1.026, -1.616e-4
-1.025, -1.612e-4
-1.024, -1.608e-4
-1.023, -1.604e-4
-1.022, -1.600e-4
-1.021, -1.596e-4
-1.020, -1.592e-4
-1.019, -1.588e-4
-1.018, -1.584e-4
-1.017, -1.579e-4
-1.016, -1.575e-4
-1.015, -1.570e-4
-1.014, -1.566e-4
-1.013, -1.561e-4
-1.012, -1.556e-4
-1.011, -1.551e-4
-1.010, -1.546e-4
-1.009, -1.541e-4
-1.008, -1.536e-4
-1.007, -1.531e-4
-1.006, -1.526e-4
-1.005, -1.520e-4
-1.004, -1.514e-4
-1.003, -1.508e-4
-1.002, -1.503e-4
-1.001, -1.497e-4
-1.000, -1.490e-4
-0.999, -1.484e-4
-0.998, -1.478e-4
-0.997, -1.471e-4
-0.996, -1.464e-4
-0.995, -1.457e-4
-0.994, -1.450e-4
-0.993, -1.443e-4
-0.992, -1.435e-4
-0.991, -1.428e-4
-0.990, -1.419e-4
-0.989, -1.412e-4
-0.988, -1.404e-4
-0.987, -1.395e-4
-0.986, -1.386e-4
-0.985, -1.378e-4
-0.984, -1.368e-4
-0.983, -1.359e-4
-0.982, -1.350e-4
-0.981, -1.340e-4
-0.980, -1.330e-4
-0.979, -1.320e-4
-0.978, -1.310e-4
-0.977, -1.299e-4
-0.976, -1.289e-4
-0.975, -1.278e-4
-0.974, -1.266e-4
-0.973, -1.254e-4
-0.972, -1.243e-4
-0.971, -1.231e-4
-0.970, -1.219e-4
-0.969, -1.208e-4
-0.968, -1.195e-4
-0.967, -1.181e-4
-0.966, -1.169e-4
-0.965, -1.156e-4
-0.964, -1.142e-4
-0.963, -1.129e-4
-0.962, -1.115e-4
-0.961, -1.100e-4
-0.960, -1.085e-4
-0.959, -1.071e-4
-0.958, -1.056e-4
-0.957, -1.039e-4
-0.956, -1.024e-4
-0.955, -1.009e-4
-0.954, -9.919e-5
-0.953, -9.757e-5
-0.952, -9.590e-5
-0.951, -9.415e-5
-0.950, -9.238e-5
-0.949, -9.069e-5
-0.948, -8.889e-5
-0.947, -8.712e-5
-0.946, -8.535e-5
-0.945, -8.348e-5
-0.944, -8.151e-5
-0.943, -7.961e-5
-0.942, -7.769e-5
-0.941, -7.567e-5
-0.940, -7.362e-5
-0.939, -7.166e-5
-0.938, -6.964e-5
-0.937, -6.747e-5
-0.936, -6.538e-5
-0.935, -6.329e-5
-0.934, -6.101e-5
-0.933, -5.883e-5
-0.932, -5.665e-5
-0.931, -5.437e-5
-0.930, -5.210e-5
-0.929, -4.989e-5
-0.928, -4.761e-5
-0.927, -4.519e-5
-0.926, -4.283e-5
-0.925, -4.050e-5
-0.924, -3.800e-5
-0.923, -3.557e-5
-0.922, -3.313e-5
-0.921, -3.043e-5
-0.920, -2.786e-5
-0.919, -2.541e-5
-0.918, -2.287e-5
-0.917, -2.022e-5
-0.916, -1.769e-5
-0.915, -1.510e-5
-0.914, -1.238e-5
-0.913, -9.708e-6
-0.912, -7.105e-6
-0.911, -4.346e-6
-0.910, -1.511e-6
-0.909, 1.125e-6
-0.908, 3.918e-6
-0.907, 6.841e-6
-0.906, 9.512e-6
-0.905, 1.227e-5
-0.904, 1.525e-5
-0.903, 1.811e-5
-0.902, 2.088e-5
-0.901, 2.385e-5
-0.900, 2.684e-5
-0.899, 2.963e-5
-0.898, 3.257e-5
-0.897, 3.563e-5
-0.896, 3.841e-5
-0.895, 4.126e-5
-0.894, 4.437e-5
-0.893, 4.733e-5
-0.892, 5.029e-5
-0.891, 5.349e-5
-0.890, 5.656e-5
-0.889, 5.949e-5
-0.888, 6.257e-5
-0.887, 6.577e-5
-0.886, 6.875e-5
-0.885, 7.180e-5
-0.884, 7.498e-5
-0.883, 7.812e-5
-0.882, 8.115e-5
-0.881, 8.436e-5
-0.880, 8.756e-5
-0.879, 9.057e-5
-0.878, 9.375e-5
-0.877, 9.698e-5
-0.876, 1.000e-4
-0.875, 1.031e-4
-0.874, 1.064e-4
-0.873, 1.095e-4
-0.872, 1.126e-4
-0.871, 1.158e-4
-0.870, 1.193e-4
-0.869, 1.224e-4
-0.868, 1.255e-4
-0.867, 1.287e-4
-0.866, 1.319e-4
-0.865, 1.350e-4
-0.864, 1.382e-4
-0.863, 1.414e-4
-0.862, 1.445e-4
-0.861, 1.477e-4
-0.860, 1.508e-4
-0.859, 1.539e-4
-0.858, 1.571e-4
-0.857, 1.603e-4
-0.856, 1.634e-4
-0.855, 1.665e-4
-0.854, 1.697e-4
-0.853, 1.728e-4
-0.852, 1.758e-4
-0.851, 1.789e-4
-0.850, 1.821e-4
-0.849, 1.850e-4
-0.848, 1.881e-4
-0.847, 1.912e-4
-0.846, 1.942e-4
-0.845, 1.970e-4
-0.844, 1.999e-4
-0.843, 2.029e-4
-0.842, 2.058e-4
-0.841, 2.087e-4
-0.840, 2.118e-4
-0.839, 2.146e-4
-0.838, 2.174e-4
-0.837, 2.204e-4
-0.836, 2.232e-4
-0.835, 2.260e-4
-0.834, 2.289e-4
-0.833, 2.316e-4
-0.832, 2.343e-4
-0.831, 2.371e-4
-0.830, 2.399e-4
-0.829, 2.424e-4
-0.828, 2.450e-4
-0.827, 2.478e-4
-0.826, 2.502e-4
-0.825, 2.527e-4
-0.824, 2.554e-4
-0.823, 2.578e-4
-0.822, 2.601e-4
-0.821, 2.626e-4
-0.820, 2.650e-4
-0.819, 2.668e-4
-0.818, 2.691e-4
-0.817, 2.715e-4
-0.816, 2.736e-4
-0.815, 2.757e-4
-0.814, 2.780e-4
-0.813, 2.800e-4
-0.812, 2.819e-4
-0.811, 2.840e-4
-0.810, 2.860e-4
-0.809, 2.878e-4
-0.808, 2.897e-4
-0.807, 2.916e-4
-0.806, 2.933e-4
-0.805, 2.949e-4
-0.804, 2.966e-4
-0.803, 2.982e-4
-0.802, 2.996e-4
-0.801, 3.012e-4
-0.800, 3.025e-4
-0.799, 3.038e-4
-0.798, 3.051e-4
-0.797, 3.063e-4
-0.796, 3.074e-4
-0.795, 3.084e-4
-0.794, 3.094e-4
-0.793, 3.102e-4
-0.792, 3.109e-4
-0.791, 3.118e-4
-0.790, 3.125e-4
-0.789, 3.131e-4
-0.788, 3.137e-4
-0.787, 3.142e-4
-0.786, 3.145e-4
-0.785, 3.149e-4
-0.784, 3.151e-4
-0.783, 3.152e-4
-0.782, 3.152e-4
-0.781, 3.153e-4
-0.780, 3.152e-4
-0.779, 3.149e-4
-0.778, 3.147e-4
-0.777, 3.144e-4
-0.776, 3.139e-4
-0.775, 3.133e-4
-0.774, 3.127e-4
-0.773, 3.120e-4
-0.772, 3.112e-4
-0.771, 3.103e-4
-0.770, 3.094e-4
-0.769, 3.083e-4
-0.768, 3.073e-4
-0.767, 3.062e-4
-0.766, 3.049e-4
-0.765, 3.034e-4
-0.764, 3.020e-4
-0.763, 3.005e-4
-0.762, 2.988e-4
-0.761, 2.972e-4
-0.760, 2.956e-4
-0.759, 2.937e-4
-0.758, 2.918e-4
-0.757, 2.900e-4
-0.756, 2.880e-4
-0.755, 2.860e-4
-0.754, 2.840e-4
-0.753, 2.820e-4
-0.752, 2.798e-4
-0.751, 2.776e-4
-0.750, 2.755e-4
-0.749, 2.732e-4
-0.748, 2.710e-4
-0.747, 2.688e-4
-0.746, 2.665e-4
-0.745, 2.642e-4
-0.744, 2.620e-4
-0.743, 2.597e-4
-0.742, 2.573e-4
-0.741, 2.551e-4
-0.740, 2.528e-4
-0.739, 2.505e-4
-0.738, 2.483e-4
-0.737, 2.461e-4
-0.736, 2.438e-4
-0.735, 2.416e-4
-0.734, 2.395e-4
-0.733, 2.373e-4
-0.732, 2.351e-4
-0.731, 2.330e-4
-0.730, 2.309e-4
-0.729, 2.288e-4
-0.728, 2.268e-4
-0.727, 2.248e-4
-0.726, 2.227e-4
-0.725, 2.207e-4
-0.724, 2.188e-4
-0.723, 2.169e-4
-0.722, 2.149e-4
-0.721, 2.131e-4
-0.720, 2.112e-4
-0.719, 2.094e-4
-0.718, 2.076e-4
-0.717, 2.059e-4
-0.716, 2.041e-4
-0.715, 2.024e-4
-0.714, 2.007e-4
-0.713, 1.990e-4
-0.712, 1.973e-4
-0.711, 1.957e-4
-0.710, 1.942e-4
-0.709, 1.926e-4
-0.708, 1.910e-4
-0.707, 1.895e-4
-0.706, 1.880e-4
-0.705, 1.865e-4
-0.704, 1.851e-4
-0.703, 1.837e-4
-0.702, 1.823e-4
-0.701, 1.809e-4
-0.700, 1.795e-4
-0.699, 1.782e-4
-0.698, 1.768e-4
-0.697, 1.755e-4
-0.696, 1.742e-4
-0.695, 1.730e-4
-0.694, 1.717e-4
-0.693, 1.705e-4
-0.692, 1.692e-4
-0.691, 1.680e-4
-0.690, 1.668e-4
-0.689, 1.657e-4
-0.688, 1.645e-4
-0.687, 1.634e-4
-0.686, 1.623e-4
-0.685, 1.612e-4
-0.684, 1.601e-4
-0.683, 1.590e-4
-0.682, 1.580e-4
-0.681, 1.569e-4
-0.680, 1.559e-4
-0.679, 1.549e-4
-0.678, 1.539e-4
-0.677, 1.529e-4
-0.676, 1.519e-4
-0.675, 1.509e-4
-0.674, 1.500e-4
-0.673, 1.490e-4
-0.672, 1.481e-4
-0.671, 1.472e-4
-0.670, 1.463e-4
-0.669, 1.454e-4
-0.668, 1.445e-4
-0.667, 1.436e-4
-0.666, 1.428e-4
-0.665, 1.419e-4
-0.664, 1.411e-4
-0.663, 1.403e-4
-0.662, 1.394e-4
-0.661, 1.386e-4
-0.660, 1.378e-4
-0.659, 1.370e-4
-0.658, 1.362e-4
-0.657, 1.355e-4
-0.656, 1.347e-4
-0.655, 1.339e-4
-0.654, 1.332e-4
-0.653, 1.324e-4
-0.652, 1.317e-4
-0.651, 1.310e-4
-0.650, 1.303e-4
-0.649, 1.296e-4
-0.648, 1.289e-4
-0.647, 1.282e-4
-0.646, 1.275e-4
-0.645, 1.268e-4
-0.644, 1.261e-4
-0.643, 1.255e-4
-0.642, 1.248e-4
-0.641, 1.241e-4
-0.640, 1.235e-4
-0.639, 1.229e-4
-0.638, 1.222e-4
-0.637, 1.216e-4
-0.636, 1.210e-4
-0.635, 1.204e-4
-0.634, 1.198e-4
-0.633, 1.192e-4
-0.632, 1.186e-4
-0.631, 1.180e-4
-0.630, 1.174e-4
-0.629, 1.168e-4
-0.628, 1.162e-4
-0.627, 1.157e-4
-0.626, 1.151e-4
-0.625, 1.146e-4
-0.624, 1.140e-4
-0.623, 1.135e-4
-0.622, 1.129e-4
-0.621, 1.124e-4
-0.620, 1.119e-4
-0.619, 1.113e-4
-0.618, 1.108e-4
-0.617, 1.103e-4
-0.616, 1.098e-4
-0.615, 1.093e-4
-0.614, 1.088e-4
-0.613, 1.083e-4
-0.612, 1.078e-4
-0.611, 1.073e-4
-0.610, 1.068e-4
-0.609, 1.063e-4
-0.608, 1.058e-4
-0.607, 1.053e-4
-0.606, 1.049e-4
-0.605, 1.044e-4
-0.604, 1.039e-4
-0.603, 1.035e-4
-0.602, 1.030e-4
-0.601, 1.026e-4
-0.600, 1.021e-4
-0.599, 1.017e-4
-0.598, 1.013e-4
-0.597, 1.008e-4
-0.596, 1.004e-4
-0.595, 9.996e-5
-0.594, 9.953e-5
-0.593, 9.912e-5
-0.592, 9.870e-5
-0.591, 9.827e-5
-0.590, 9.786e-5
-0.589, 9.745e-5
-0.588, 9.703e-5
-0.587, 9.663e-5
-0.586, 9.624e-5
-0.585, 9.583e-5
-0.584, 9.544e-5
-0.583, 9.506e-5
-0.582, 9.467e-5
-0.581, 9.427e-5
-0.580, 9.389e-5
-0.579, 9.352e-5
-0.578, 9.313e-5
-0.577, 9.275e-5
-0.576, 9.240e-5
-0.575, 9.202e-5
-0.574, 9.164e-5
-0.573, 9.129e-5
-0.572, 9.092e-5
-0.571, 9.055e-5
-0.570, 9.019e-5
-0.569, 8.984e-5
-0.568, 8.947e-5
-0.567, 8.912e-5
-0.566, 8.878e-5
-0.565, 8.843e-5
-0.564, 8.808e-5
-0.563, 8.776e-5
-0.562, 8.742e-5
-0.561, 8.708e-5
-0.560, 8.675e-5
-0.559, 8.643e-5
-0.558, 8.609e-5
-0.557, 8.577e-5
-0.556, 8.545e-5
-0.555, 8.513e-5
-0.554, 8.480e-5
-0.553, 8.449e-5
-0.552, 8.417e-5
-0.551, 8.385e-5
-0.550, 8.354e-5
-0.549, 8.324e-5
-0.548, 8.291e-5
-0.547, 8.260e-5
-0.546, 8.231e-5
-0.545, 8.200e-5
-0.544, 8.169e-5
-0.543, 8.139e-5
-0.542, 8.110e-5
-0.541, 8.079e-5
-0.540, 8.051e-5
-0.539, 8.023e-5
-0.538, 7.993e-5
-0.537, 7.964e-5
-0.536, 7.937e-5
-0.535, 7.908e-5
-0.534, 7.879e-5
-0.533, 7.852e-5
-0.532, 7.824e-5
-0.531, 7.796e-5
-0.530, 7.768e-5
-0.529, 7.741e-5
-0.528, 7.713e-5
-0.527, 7.686e-5
-0.526, 7.660e-5
-0.525, 7.632e-5
-0.524, 7.605e-5
-0.523, 7.580e-5
-0.522, 7.554e-5
-0.521, 7.527e-5
-0.520, 7.501e-5
-0.519, 7.476e-5
-0.518, 7.449e-5
-0.517, 7.424e-5
-0.516, 7.400e-5
-0.515, 7.374e-5
-0.514, 7.348e-5
-0.513, 7.324e-5
-0.512, 7.300e-5
-0.511, 7.274e-5
-0.510, 7.250e-5
-0.509, 7.226e-5
-0.508, 7.201e-5
-0.507, 7.177e-5
-0.506, 7.154e-5
-0.505, 7.130e-5
-0.504, 7.105e-5
-0.503, 7.083e-5
-0.502, 7.059e-5
-0.501, 7.035e-5
-0.500, 7.004e-5
-0.501, 6.969e-5
-0.502, 6.940e-5
-0.503, 6.913e-5
-0.504, 6.887e-5
-0.505, 6.861e-5
-0.506, 6.835e-5
-0.507, 6.812e-5
-0.508, 6.787e-5
-0.509, 6.761e-5
-0.510, 6.737e-5
-0.511, 6.714e-5
-0.512, 6.689e-5
-0.513, 6.665e-5
-0.514, 6.642e-5
-0.515, 6.618e-5
-0.516, 6.594e-5
-0.517, 6.571e-5
-0.518, 6.549e-5
-0.519, 6.525e-5
-0.520, 6.503e-5
-0.521, 6.481e-5
-0.522, 6.458e-5
-0.523, 6.436e-5
-0.524, 6.416e-5
-0.525, 6.394e-5
-0.526, 6.371e-5
-0.527, 6.352e-5
-0.528, 6.330e-5
-0.529, 6.308e-5
-0.530, 6.288e-5
-0.531, 6.268e-5
-0.532, 6.247e-5
-0.533, 6.226e-5
-0.534, 6.207e-5
-0.535, 6.186e-5
-0.536, 6.164e-5
-0.537, 6.146e-5
-0.538, 6.126e-5
-0.539, 6.105e-5
-0.540, 6.085e-5
-0.541, 6.066e-5
-0.542, 6.045e-5
-0.543, 6.026e-5
-0.544, 6.007e-5
-0.545, 5.987e-5
-0.546, 5.968e-5
-0.547, 5.949e-5
-0.548, 5.930e-5
-0.549, 5.909e-5
-0.550, 5.891e-5
-0.551, 5.872e-5
-0.552, 5.852e-5
-0.553, 5.833e-5
-0.554, 5.816e-5
-0.555, 5.796e-5
-0.556, 5.777e-5
-0.557, 5.760e-5
-0.558, 5.741e-5
-0.559, 5.722e-5
-0.560, 5.705e-5
-0.561, 5.687e-5
-0.562, 5.669e-5
-0.563, 5.651e-5
-0.564, 5.634e-5
-0.565, 5.616e-5
-0.566, 5.599e-5
-0.567, 5.582e-5
-0.568, 5.565e-5
-0.569, 5.546e-5
-0.570, 5.530e-5
-0.571, 5.513e-5
-0.572, 5.495e-5
-0.573, 5.478e-5
-0.574, 5.462e-5
-0.575, 5.444e-5
-0.576, 5.426e-5
-0.577, 5.410e-5
-0.578, 5.393e-5
-0.579, 5.376e-5
-0.580, 5.360e-5
-0.581, 5.343e-5
-0.582, 5.326e-5
-0.583, 5.310e-5
-0.584, 5.294e-5
-0.585, 5.278e-5
-0.586, 5.262e-5
-0.587, 5.247e-5
-0.588, 5.231e-5
-0.589, 5.215e-5
-0.590, 5.199e-5
-0.591, 5.184e-5
-0.592, 5.167e-5
-0.593, 5.152e-5
-0.594, 5.137e-5
-0.595, 5.121e-5
-0.596, 5.105e-5
-0.597, 5.090e-5
-0.598, 5.074e-5
-0.599, 5.057e-5
-0.600, 5.042e-5
-0.601, 5.027e-5
-0.602, 5.010e-5
-0.603, 4.994e-5
-0.604, 4.980e-5
-0.605, 4.964e-5
-0.606, 4.949e-5
-0.607, 4.935e-5
-0.608, 4.920e-5
-0.609, 4.904e-5
-0.610, 4.890e-5
-0.611, 4.876e-5
-0.612, 4.860e-5
-0.613, 4.846e-5
-0.614, 4.832e-5
-0.615, 4.817e-5
-0.616, 4.802e-5
-0.617, 4.789e-5
-0.618, 4.774e-5
-0.619, 4.759e-5
-0.620, 4.746e-5
-0.621, 4.732e-5
-0.622, 4.716e-5
-0.623, 4.703e-5
-0.624, 4.690e-5
-0.625, 4.675e-5
-0.626, 4.660e-5
-0.627, 4.648e-5
-0.628, 4.633e-5
-0.629, 4.618e-5
-0.630, 4.606e-5
-0.631, 4.592e-5
-0.632, 4.577e-5
-0.633, 4.564e-5
-0.634, 4.551e-5
-0.635, 4.536e-5
-0.636, 4.522e-5
-0.637, 4.509e-5
-0.638, 4.495e-5
-0.639, 4.480e-5
-0.640, 4.467e-5
-0.641, 4.454e-5
-0.642, 4.439e-5
-0.643, 4.425e-5
-0.644, 4.412e-5
-0.645, 4.398e-5
-0.646, 4.383e-5
-0.647, 4.371e-5
-0.648, 4.357e-5
-0.649, 4.343e-5
-0.650, 4.330e-5
-0.651, 4.317e-5
-0.652, 4.303e-5
-0.653, 4.289e-5
-0.654, 4.277e-5
-0.655, 4.262e-5
-0.656, 4.248e-5
-0.657, 4.236e-5
-0.658, 4.222e-5
-0.659, 4.208e-5
-0.660, 4.195e-5
-0.661, 4.181e-5
-0.662, 4.167e-5
-0.663, 4.153e-5
-0.664, 4.140e-5
-0.665, 4.125e-5
-0.666, 4.110e-5
-0.667, 4.097e-5
-0.668, 4.084e-5
-0.669, 4.069e-5
-0.670, 4.055e-5
-0.671, 4.041e-5
-0.672, 4.026e-5
-0.673, 4.012e-5
-0.674, 3.998e-5
-0.675, 3.983e-5
-0.676, 3.969e-5
-0.677, 3.955e-5
-0.678, 3.940e-5
-0.679, 3.925e-5
-0.680, 3.910e-5
-0.681, 3.896e-5
-0.682, 3.880e-5
-0.683, 3.865e-5
-0.684, 3.850e-5
-0.685, 3.834e-5
-0.686, 3.819e-5
-0.687, 3.804e-5
-0.688, 3.788e-5
-0.689, 3.772e-5
-0.690, 3.756e-5
-0.691, 3.741e-5
-0.692, 3.724e-5
-0.693, 3.707e-5
-0.694, 3.691e-5
-0.695, 3.673e-5
-0.696, 3.655e-5
-0.697, 3.639e-5
-0.698, 3.621e-5
-0.699, 3.602e-5
-0.700, 3.584e-5
-0.701, 3.566e-5
-0.702, 3.547e-5
-0.703, 3.528e-5
-0.704, 3.508e-5
-0.705, 3.488e-5
-0.706, 3.469e-5
-0.707, 3.449e-5
-0.708, 3.428e-5
-0.709, 3.407e-5
-0.710, 3.387e-5
-0.711, 3.366e-5
-0.712, 3.343e-5
-0.713, 3.322e-5
-0.714, 3.300e-5
-0.715, 3.277e-5
-0.716, 3.254e-5
-0.717, 3.229e-5
-0.718, 3.204e-5
-0.719, 3.179e-5
-0.720, 3.155e-5
-0.721, 3.129e-5
-0.722, 3.101e-5
-0.723, 3.075e-5
-0.724, 3.047e-5
-0.725, 3.018e-5
-0.726, 2.990e-5
-0.727, 2.961e-5
-0.728, 2.930e-5
-0.729, 2.900e-5
-0.730, 2.869e-5
-0.731, 2.835e-5
-0.732, 2.804e-5
-0.733, 2.771e-5
-0.734, 2.736e-5
-0.735, 2.700e-5
-0.736, 2.666e-5
-0.737, 2.629e-5
-0.738, 2.589e-5
-0.739, 2.553e-5
-0.740, 2.513e-5
-0.741, 2.470e-5
-0.742, 2.431e-5
-0.743, 2.394e-5
-0.744, 2.345e-5
-0.745, 2.299e-5
-0.746, 2.256e-5
-0.747, 2.206e-5
-0.748, 2.155e-5
-0.749, 2.109e-5
-0.750, 2.058e-5
-0.751, 2.004e-5
-0.752, 1.950e-5
-0.753, 1.899e-5
-0.754, 1.839e-5
-0.755, 1.779e-5
-0.756, 1.724e-5
-0.757, 1.660e-5
-0.758, 1.595e-5
-0.759, 1.535e-5
-0.760, 1.471e-5
-0.761, 1.401e-5
-0.762, 1.335e-5
-0.763, 1.265e-5
-0.764, 1.191e-5
-0.765, 1.116e-5
-0.766, 1.043e-5
-0.767, 9.637e-6
-0.768, 8.725e-6
-0.769, 7.961e-6
-0.770, 7.143e-6
-0.771, 6.258e-6
-0.772, 5.377e-6
-0.773, 4.508e-6
-0.774, 3.577e-6
-0.775, 2.622e-6
-0.776, 1.696e-6
-0.777, 7.020e-7
-0.778, -3.501e-7
-0.779, -1.356e-6
-0.780, -2.379e-6
-0.781, -3.554e-6
-0.782, -4.652e-6
-0.783, -5.711e-6
-0.784, -6.909e-6
-0.785, -8.068e-6
-0.786, -9.246e-6
-0.787, -1.051e-5
-0.788, -1.183e-5
-0.789, -1.310e-5
-0.790, -1.434e-5
-0.791, -1.574e-5
-0.792, -1.710e-5
-0.793, -1.842e-5
-0.794, -1.978e-5
-0.795, -2.126e-5
-0.796, -2.269e-5
-0.797, -2.420e-5
-0.798, -2.577e-5
-0.799, -2.733e-5
-0.800, -2.881e-5
-0.801, -3.051e-5
-0.802, -3.217e-5
-0.803, -3.381e-5
-0.804, -3.552e-5
-0.805, -3.733e-5
-0.806, -3.900e-5
-0.807, -4.083e-5
-0.808, -4.271e-5
-0.809, -4.450e-5
-0.810, -4.633e-5
-0.811, -4.832e-5
-0.812, -5.023e-5
-0.813, -5.205e-5
-0.814, -5.409e-5
-0.815, -5.618e-5
-0.816, -5.815e-5
-0.817, -6.021e-5
-0.818, -6.241e-5
-0.819, -6.419e-5
-0.820, -6.612e-5
-0.821, -6.848e-5
-0.822, -7.067e-5
-0.823, -7.284e-5
-0.824, -7.519e-5
-0.825, -7.751e-5
-0.826, -7.974e-5
-0.827, -8.212e-5
-0.828, -8.459e-5
-0.829, -8.693e-5
-0.830, -8.930e-5
-0.831, -9.189e-5
-0.832, -9.438e-5
-0.833, -9.677e-5
-0.834, -9.936e-5
-0.835, -1.019e-4
-0.836, -1.044e-4
-0.837, -1.071e-4
-0.838, -1.097e-4
-0.839, -1.122e-4
-0.840, -1.149e-4
-0.841, -1.177e-4
-0.842, -1.203e-4
-0.843, -1.230e-4
-0.844, -1.258e-4
-0.845, -1.285e-4
-0.846, -1.312e-4
-0.847, -1.340e-4
-0.848, -1.369e-4
-0.849, -1.397e-4
-0.850, -1.425e-4
-0.851, -1.455e-4
-0.852, -1.484e-4
-0.853, -1.513e-4
-0.854, -1.543e-4
-0.855, -1.573e-4
-0.856, -1.602e-4
-0.857, -1.631e-4
-0.858, -1.663e-4
-0.859, -1.692e-4
-0.860, -1.722e-4
-0.861, -1.753e-4
-0.862, -1.784e-4
-0.863, -1.814e-4
-0.864, -1.845e-4
-0.865, -1.876e-4
-0.866, -1.907e-4
-0.867, -1.938e-4
-0.868, -1.970e-4
-0.869, -2.001e-4
-0.870, -2.033e-4
-0.871, -2.067e-4
-0.872, -2.098e-4
-0.873, -2.129e-4
-0.874, -2.161e-4
-0.875, -2.193e-4
-0.876, -2.225e-4
-0.877, -2.257e-4
-0.878, -2.290e-4
-0.879, -2.321e-4
-0.880, -2.353e-4
-0.881, -2.386e-4
-0.882, -2.419e-4
-0.883, -2.450e-4
-0.884, -2.483e-4
-0.885, -2.517e-4
-0.886, -2.548e-4
-0.887, -2.580e-4
-0.888, -2.614e-4
-0.889, -2.644e-4
-0.890, -2.676e-4
-0.891, -2.709e-4
-0.892, -2.742e-4
-0.893, -2.773e-4
-0.894, -2.807e-4
-0.895, -2.839e-4
-0.896, -2.869e-4
-0.897, -2.900e-4
-0.898, -2.934e-4
-0.899, -2.965e-4
-0.900, -2.996e-4
-0.901, -3.030e-4
-0.902, -3.061e-4
-0.903, -3.092e-4
-0.904, -3.125e-4
-0.905, -3.156e-4
-0.906, -3.186e-4
-0.907, -3.218e-4
-0.908, -3.250e-4
-0.909, -3.281e-4
-0.910, -3.311e-4
-0.911, -3.343e-4
-0.912, -3.374e-4
-0.913, -3.403e-4
-0.914, -3.434e-4
-0.915, -3.465e-4
-0.916, -3.493e-4
-0.917, -3.523e-4
-0.918, -3.554e-4
-0.919, -3.582e-4
-0.920, -3.611e-4
-0.921, -3.641e-4
-0.922, -3.671e-4
-0.923, -3.699e-4
-0.924, -3.728e-4
-0.925, -3.756e-4
-0.926, -3.782e-4
-0.927, -3.810e-4
-0.928, -3.837e-4
-0.929, -3.863e-4
-0.930, -3.889e-4
-0.931, -3.916e-4
-0.932, -3.941e-4
-0.933, -3.966e-4
-0.934, -3.991e-4
-0.935, -4.016e-4
-0.936, -4.040e-4
-0.937, -4.064e-4
-0.938, -4.089e-4
-0.939, -4.112e-4
-0.940, -4.133e-4
-0.941, -4.156e-4
-0.942, -4.178e-4
-0.943, -4.199e-4
-0.944, -4.220e-4
-0.945, -4.241e-4
-0.946, -4.260e-4
-0.947, -4.278e-4
-0.948, -4.297e-4
-0.949, -4.315e-4
-0.950, -4.333e-4
-0.951, -4.351e-4
-0.952, -4.368e-4
-0.953, -4.383e-4
-0.954, -4.399e-4
-0.955, -4.414e-4
-0.956, -4.428e-4
-0.957, -4.442e-4
-0.958, -4.456e-4
-0.959, -4.468e-4
-0.960, -4.479e-4
-0.961, -4.491e-4
-0.962, -4.502e-4
-0.963, -4.510e-4
-0.964, -4.519e-4
-0.965, -4.528e-4
-0.966, -4.534e-4
-0.967, -4.541e-4
-0.968, -4.548e-4
-0.969, -4.551e-4
-0.970, -4.556e-4
-0.971, -4.561e-4
-0.972, -4.563e-4
-0.973, -4.566e-4
-0.974, -4.567e-4
-0.975, -4.568e-4
-0.976, -4.566e-4
-0.977, -4.564e-4
-0.978, -4.563e-4
-0.979, -4.559e-4
-0.980, -4.553e-4
-0.981, -4.549e-4
-0.982, -4.543e-4
-0.983, -4.534e-4
-0.984, -4.528e-4
-0.985, -4.519e-4
-0.986, -4.508e-4
-0.987, -4.498e-4
-0.988, -4.487e-4
-0.989, -4.474e-4
-0.990, -4.460e-4
-0.991, -4.448e-4
-0.992, -4.432e-4
-0.993, -4.416e-4
-0.994, -4.401e-4
-0.995, -4.384e-4
-0.996, -4.365e-4
-0.997, -4.348e-4
-0.998, -4.328e-4
-0.999, -4.307e-4
-1.000, -4.287e-4
-1.001, -4.267e-4
-1.002, -4.245e-4
-1.003, -4.223e-4
-1.004, -4.201e-4
-1.005, -4.179e-4
-1.006, -4.155e-4
-1.007, -4.132e-4
-1.008, -4.109e-4
-1.009, -4.085e-4
-1.010, -4.061e-4
-1.011, -4.038e-4
-1.012, -4.013e-4
-1.013, -3.989e-4
-1.014, -3.965e-4
-1.015, -3.941e-4
-1.016, -3.916e-4
-1.017, -3.892e-4
-1.018, -3.868e-4
-1.019, -3.843e-4
-1.020, -3.819e-4
-1.021, -3.796e-4
-1.022, -3.772e-4
-1.023, -3.748e-4
-1.024, -3.726e-4
-1.025, -3.703e-4
-1.026, -3.680e-4
-1.027, -3.658e-4
-1.028, -3.635e-4
-1.029, -3.613e-4
-1.030, -3.591e-4
-1.031, -3.570e-4
-1.032, -3.549e-4
-1.033, -3.528e-4
-1.034, -3.508e-4
-1.035, -3.488e-4
-1.036, -3.467e-4
-1.037, -3.448e-4
-1.038, -3.429e-4
-1.039, -3.409e-4
-1.040, -3.391e-4
-1.041, -3.372e-4
-1.042, -3.354e-4
-1.043, -3.336e-4
-1.044, -3.318e-4
-1.045, -3.301e-4
-1.046, -3.283e-4
-1.047, -3.266e-4
-1.048, -3.250e-4
-1.049, -3.233e-4
-1.050, -3.216e-4
-1.051, -3.201e-4
-1.052, -3.185e-4
-1.053, -3.169e-4
-1.054, -3.154e-4
-1.055, -3.140e-4
-1.056, -3.125e-4
-1.057, -3.110e-4
-1.058, -3.096e-4
-1.059, -3.081e-4
-1.060, -3.067e-4
-1.061, -3.054e-4
-1.062, -3.040e-4
-1.063, -3.027e-4
-1.064, -3.014e-4
-1.065, -3.001e-4
-1.066, -2.988e-4
-1.067, -2.975e-4
-1.068, -2.963e-4
-1.069, -2.950e-4
-1.070, -2.938e-4
-1.071, -2.926e-4
-1.072, -2.914e-4
-1.073, -2.903e-4
-1.074, -2.891e-4
-1.075, -2.880e-4
-1.076, -2.869e-4
-1.077, -2.858e-4
-1.078, -2.847e-4
-1.079, -2.836e-4
-1.080, -2.825e-4
-1.081, -2.815e-4
-1.082, -2.804e-4
-1.083, -2.794e-4
-1.084, -2.784e-4
-1.085, -2.774e-4
-1.086, -2.764e-4
-1.087, -2.754e-4
-1.088, -2.745e-4
-1.089, -2.735e-4
-1.090, -2.726e-4
-1.091, -2.717e-4
-1.092, -2.708e-4
-1.093, -2.698e-4
-1.094, -2.689e-4
-1.095, -2.681e-4
-1.096, -2.672e-4
-1.097, -2.663e-4
-1.098, -2.655e-4
-1.099, -2.646e-4
-1.100, -2.638e-4
-1.101, -2.629e-4
-1.102, -2.621e-4
-1.103, -2.613e-4
-1.104, -2.605e-4
-1.105, -2.597e-4
-1.106, -2.589e-4
-1.107, -2.581e-4
-1.108, -2.573e-4
-1.109, -2.565e-4
-1.110, -2.558e-4
-1.111, -2.550e-4
-1.112, -2.543e-4
-1.113, -2.536e-4
-1.114, -2.528e-4
-1.115, -2.521e-4
-1.116, -2.514e-4
-1.117, -2.507e-4
-1.118, -2.500e-4
-1.119, -2.493e-4
-1.120, -2.487e-4
-1.121, -2.480e-4
-1.122, -2.473e-4
-1.123, -2.467e-4
-1.124, -2.460e-4
-1.125, -2.454e-4
-1.126, -2.447e-4
-1.127, -2.441e-4
-1.128, -2.434e-4
-1.129, -2.428e-4
-1.130, -2.422e-4
-1.131, -2.416e-4
-1.132, -2.410e-4
-1.133, -2.404e-4
-1.134, -2.398e-4
-1.135, -2.392e-4
-1.136, -2.386e-4
-1.137, -2.380e-4
-1.138, -2.374e-4
-1.139, -2.369e-4
-1.140, -2.363e-4
-1.141, -2.357e-4
-1.142, -2.352e-4
-1.143, -2.346e-4
-1.144, -2.341e-4
-1.145, -2.335e-4
-1.146, -2.330e-4
-1.147, -2.324e-4
-1.148, -2.319e-4
-1.149, -2.314e-4
-1.150, -2.309e-4
-1.151, -2.303e-4
-1.152, -2.298e-4
-1.153, -2.293e-4
-1.154, -2.288e-4
-1.155, -2.283e-4
-1.156, -2.278e-4
-1.157, -2.273e-4
-1.158, -2.268e-4
-1.159, -2.264e-4
-1.160, -2.259e-4
-1.161, -2.254e-4
-1.162, -2.249e-4
-1.163, -2.245e-4
-1.164, -2.240e-4
-1.165, -2.236e-4
-1.166, -2.231e-4
-1.167, -2.227e-4
-1.168, -2.222e-4
-1.169, -2.218e-4
-1.170, -2.213e-4
-1.171, -2.209e-4
-1.172, -2.204e-4
-1.173, -2.200e-4
-1.174, -2.196e-4
-1.175, -2.192e-4
-1.176, -2.187e-4
-1.177, -2.183e-4
-1.178, -2.179e-4
-1.179, -2.175e-4
-1.180, -2.171e-4
-1.181, -2.167e-4
-1.182, -2.163e-4
-1.183, -2.159e-4
-1.184, -2.155e-4
-1.185, -2.151e-4
-1.186, -2.147e-4
-1.187, -2.143e-4
-1.188, -2.139e-4
-1.189, -2.135e-4
-1.190, -2.132e-4
-1.191, -2.128e-4
-1.192, -2.124e-4
-1.193, -2.120e-4
-1.194, -2.116e-4
-1.195, -2.113e-4
-1.196, -2.109e-4
-1.197, -2.105e-4
-1.198, -2.102e-4
-1.199, -2.098e-4
