May 10, 2022   10:07:22
Cyclic Voltammetry
File: c:\users\nstumme\onedrive - university of iowa\documents\year 3\220510\nq\250 mv.csv
Data Source:  Experiment
Instrument Model:  CHI660D
Header: 
Note: 

Init E (V) = -1.2
High E (V) = -0.5
Low E (V) = -1.2
Init P/N = P
Scan Rate (V/s) = 0.25
Segment = 6
Sample Interval (V) = 0.001
Quiet Time (sec) = 2
Sensitivity (A/V) = 1e-4

Segment 1:

Segment 2:

Segment 3:

Segment 4:

Segment 5:

Segment 6:

Potential/V, Current/A

-1.200, -1.705e-4
-1.199, -1.703e-4
-1.198, -1.701e-4
-1.197, -1.699e-4
-1.196, -1.698e-4
-1.195, -1.696e-4
-1.194, -1.694e-4
-1.193, -1.693e-4
-1.192, -1.691e-4
-1.191, -1.690e-4
-1.190, -1.689e-4
-1.189, -1.687e-4
-1.188, -1.686e-4
-1.187, -1.685e-4
-1.186, -1.684e-4
-1.185, -1.682e-4
-1.184, -1.681e-4
-1.183, -1.680e-4
-1.182, -1.679e-4
-1.181, -1.677e-4
-1.180, -1.677e-4
-1.179, -1.675e-4
-1.178, -1.674e-4
-1.177, -1.673e-4
-1.176, -1.672e-4
-1.175, -1.670e-4
-1.174, -1.669e-4
-1.173, -1.668e-4
-1.172, -1.667e-4
-1.171, -1.666e-4
-1.170, -1.664e-4
-1.169, -1.663e-4
-1.168, -1.662e-4
-1.167, -1.661e-4
-1.166, -1.660e-4
-1.165, -1.658e-4
-1.164, -1.657e-4
-1.163, -1.656e-4
-1.162, -1.655e-4
-1.161, -1.654e-4
-1.160, -1.653e-4
-1.159, -1.652e-4
-1.158, -1.651e-4
-1.157, -1.650e-4
-1.156, -1.649e-4
-1.155, -1.648e-4
-1.154, -1.647e-4
-1.153, -1.646e-4
-1.152, -1.645e-4
-1.151, -1.644e-4
-1.150, -1.643e-4
-1.149, -1.642e-4
-1.148, -1.641e-4
-1.147, -1.640e-4
-1.146, -1.639e-4
-1.145, -1.638e-4
-1.144, -1.637e-4
-1.143, -1.636e-4
-1.142, -1.635e-4
-1.141, -1.634e-4
-1.140, -1.633e-4
-1.139, -1.632e-4
-1.138, -1.631e-4
-1.137, -1.630e-4
-1.136, -1.629e-4
-1.135, -1.628e-4
-1.134, -1.627e-4
-1.133, -1.626e-4
-1.132, -1.625e-4
-1.131, -1.624e-4
-1.130, -1.623e-4
-1.129, -1.622e-4
-1.128, -1.621e-4
-1.127, -1.620e-4
-1.126, -1.619e-4
-1.125, -1.618e-4
-1.124, -1.617e-4
-1.123, -1.616e-4
-1.122, -1.615e-4
-1.121, -1.614e-4
-1.120, -1.613e-4
-1.119, -1.612e-4
-1.118, -1.611e-4
-1.117, -1.610e-4
-1.116, -1.609e-4
-1.115, -1.608e-4
-1.114, -1.607e-4
-1.113, -1.606e-4
-1.112, -1.605e-4
-1.111, -1.604e-4
-1.110, -1.602e-4
-1.109, -1.601e-4
-1.108, -1.601e-4
-1.107, -1.599e-4
-1.106, -1.598e-4
-1.105, -1.597e-4
-1.104, -1.596e-4
-1.103, -1.595e-4
-1.102, -1.594e-4
-1.101, -1.594e-4
-1.100, -1.592e-4
-1.099, -1.591e-4
-1.098, -1.590e-4
-1.097, -1.589e-4
-1.096, -1.588e-4
-1.095, -1.587e-4
-1.094, -1.586e-4
-1.093, -1.585e-4
-1.092, -1.584e-4
-1.091, -1.583e-4
-1.090, -1.582e-4
-1.089, -1.581e-4
-1.088, -1.580e-4
-1.087, -1.579e-4
-1.086, -1.578e-4
-1.085, -1.577e-4
-1.084, -1.576e-4
-1.083, -1.575e-4
-1.082, -1.574e-4
-1.081, -1.573e-4
-1.080, -1.572e-4
-1.079, -1.571e-4
-1.078, -1.569e-4
-1.077, -1.568e-4
-1.076, -1.567e-4
-1.075, -1.566e-4
-1.074, -1.565e-4
-1.073, -1.564e-4
-1.072, -1.562e-4
-1.071, -1.561e-4
-1.070, -1.560e-4
-1.069, -1.559e-4
-1.068, -1.557e-4
-1.067, -1.556e-4
-1.066, -1.555e-4
-1.065, -1.553e-4
-1.064, -1.552e-4
-1.063, -1.551e-4
-1.062, -1.549e-4
-1.061, -1.548e-4
-1.060, -1.546e-4
-1.059, -1.545e-4
-1.058, -1.544e-4
-1.057, -1.542e-4
-1.056, -1.541e-4
-1.055, -1.539e-4
-1.054, -1.538e-4
-1.053, -1.537e-4
-1.052, -1.535e-4
-1.051, -1.534e-4
-1.050, -1.532e-4
-1.049, -1.531e-4
-1.048, -1.529e-4
-1.047, -1.528e-4
-1.046, -1.526e-4
-1.045, -1.524e-4
-1.044, -1.523e-4
-1.043, -1.521e-4
-1.042, -1.520e-4
-1.041, -1.518e-4
-1.040, -1.516e-4
-1.039, -1.515e-4
-1.038, -1.513e-4
-1.037, -1.511e-4
-1.036, -1.509e-4
-1.035, -1.507e-4
-1.034, -1.505e-4
-1.033, -1.503e-4
-1.032, -1.501e-4
-1.031, -1.499e-4
-1.030, -1.497e-4
-1.029, -1.495e-4
-1.028, -1.493e-4
-1.027, -1.491e-4
-1.026, -1.488e-4
-1.025, -1.486e-4
-1.024, -1.483e-4
-1.023, -1.481e-4
-1.022, -1.479e-4
-1.021, -1.476e-4
-1.020, -1.473e-4
-1.019, -1.471e-4
-1.018, -1.468e-4
-1.017, -1.465e-4
-1.016, -1.462e-4
-1.015, -1.459e-4
-1.014, -1.456e-4
-1.013, -1.453e-4
-1.012, -1.449e-4
-1.011, -1.446e-4
-1.010, -1.443e-4
-1.009, -1.439e-4
-1.008, -1.436e-4
-1.007, -1.433e-4
-1.006, -1.429e-4
-1.005, -1.425e-4
-1.004, -1.421e-4
-1.003, -1.417e-4
-1.002, -1.413e-4
-1.001, -1.409e-4
-1.000, -1.405e-4
-0.999, -1.400e-4
-0.998, -1.396e-4
-0.997, -1.392e-4
-0.996, -1.387e-4
-0.995, -1.382e-4
-0.994, -1.377e-4
-0.993, -1.372e-4
-0.992, -1.367e-4
-0.991, -1.361e-4
-0.990, -1.356e-4
-0.989, -1.350e-4
-0.988, -1.344e-4
-0.987, -1.338e-4
-0.986, -1.332e-4
-0.985, -1.326e-4
-0.984, -1.319e-4
-0.983, -1.312e-4
-0.982, -1.306e-4
-0.981, -1.299e-4
-0.980, -1.292e-4
-0.979, -1.284e-4
-0.978, -1.277e-4
-0.977, -1.269e-4
-0.976, -1.261e-4
-0.975, -1.253e-4
-0.974, -1.244e-4
-0.973, -1.236e-4
-0.972, -1.227e-4
-0.971, -1.218e-4
-0.970, -1.208e-4
-0.969, -1.200e-4
-0.968, -1.190e-4
-0.967, -1.180e-4
-0.966, -1.170e-4
-0.965, -1.160e-4
-0.964, -1.149e-4
-0.963, -1.138e-4
-0.962, -1.127e-4
-0.961, -1.116e-4
-0.960, -1.104e-4
-0.959, -1.093e-4
-0.958, -1.080e-4
-0.957, -1.068e-4
-0.956, -1.056e-4
-0.955, -1.042e-4
-0.954, -1.028e-4
-0.953, -1.016e-4
-0.952, -1.003e-4
-0.951, -9.886e-5
-0.950, -9.737e-5
-0.949, -9.591e-5
-0.948, -9.451e-5
-0.947, -9.314e-5
-0.946, -9.156e-5
-0.945, -8.995e-5
-0.944, -8.843e-5
-0.943, -8.688e-5
-0.942, -8.514e-5
-0.941, -8.344e-5
-0.940, -8.183e-5
-0.939, -8.013e-5
-0.938, -7.833e-5
-0.937, -7.648e-5
-0.936, -7.474e-5
-0.935, -7.295e-5
-0.934, -7.097e-5
-0.933, -6.903e-5
-0.932, -6.711e-5
-0.931, -6.528e-5
-0.930, -6.328e-5
-0.929, -6.115e-5
-0.928, -5.920e-5
-0.927, -5.716e-5
-0.926, -5.504e-5
-0.925, -5.288e-5
-0.924, -5.069e-5
-0.923, -4.856e-5
-0.922, -4.634e-5
-0.921, -4.387e-5
-0.920, -4.159e-5
-0.919, -3.943e-5
-0.918, -3.715e-5
-0.917, -3.472e-5
-0.916, -3.232e-5
-0.915, -3.004e-5
-0.914, -2.766e-5
-0.913, -2.511e-5
-0.912, -2.262e-5
-0.911, -2.021e-5
-0.910, -1.769e-5
-0.909, -1.510e-5
-0.908, -1.243e-5
-0.907, -9.811e-6
-0.906, -7.287e-6
-0.905, -4.611e-6
-0.904, -1.874e-6
-0.903, 8.331e-7
-0.902, 3.449e-6
-0.901, 6.186e-6
-0.900, 9.075e-6
-0.899, 1.184e-5
-0.898, 1.449e-5
-0.897, 1.732e-5
-0.896, 2.018e-5
-0.895, 2.300e-5
-0.894, 2.583e-5
-0.893, 2.866e-5
-0.892, 3.170e-5
-0.891, 3.468e-5
-0.890, 3.751e-5
-0.889, 4.043e-5
-0.888, 4.350e-5
-0.887, 4.657e-5
-0.886, 4.952e-5
-0.885, 5.250e-5
-0.884, 5.564e-5
-0.883, 5.886e-5
-0.882, 6.184e-5
-0.881, 6.491e-5
-0.880, 6.805e-5
-0.879, 7.124e-5
-0.878, 7.437e-5
-0.877, 7.738e-5
-0.876, 8.055e-5
-0.875, 8.386e-5
-0.874, 8.705e-5
-0.873, 9.010e-5
-0.872, 9.335e-5
-0.871, 9.666e-5
-0.870, 1.001e-4
-0.869, 1.033e-4
-0.868, 1.065e-4
-0.867, 1.098e-4
-0.866, 1.131e-4
-0.865, 1.163e-4
-0.864, 1.194e-4
-0.863, 1.228e-4
-0.862, 1.262e-4
-0.861, 1.294e-4
-0.860, 1.326e-4
-0.859, 1.360e-4
-0.858, 1.393e-4
-0.857, 1.426e-4
-0.856, 1.459e-4
-0.855, 1.492e-4
-0.854, 1.526e-4
-0.853, 1.559e-4
-0.852, 1.591e-4
-0.851, 1.624e-4
-0.850, 1.658e-4
-0.849, 1.691e-4
-0.848, 1.723e-4
-0.847, 1.756e-4
-0.846, 1.791e-4
-0.845, 1.823e-4
-0.844, 1.853e-4
-0.843, 1.886e-4
-0.842, 1.919e-4
-0.841, 1.953e-4
-0.840, 1.985e-4
-0.839, 2.016e-4
-0.838, 2.049e-4
-0.837, 2.082e-4
-0.836, 2.115e-4
-0.835, 2.146e-4
-0.834, 2.178e-4
-0.833, 2.212e-4
-0.832, 2.243e-4
-0.831, 2.274e-4
-0.830, 2.307e-4
-0.829, 2.339e-4
-0.828, 2.370e-4
-0.827, 2.400e-4
-0.826, 2.431e-4
-0.825, 2.463e-4
-0.824, 2.494e-4
-0.823, 2.524e-4
-0.822, 2.554e-4
-0.821, 2.585e-4
-0.820, 2.615e-4
-0.819, 2.640e-4
-0.818, 2.667e-4
-0.817, 2.699e-4
-0.816, 2.728e-4
-0.815, 2.756e-4
-0.814, 2.784e-4
-0.813, 2.813e-4
-0.812, 2.842e-4
-0.811, 2.869e-4
-0.810, 2.896e-4
-0.809, 2.924e-4
-0.808, 2.951e-4
-0.807, 2.978e-4
-0.806, 3.003e-4
-0.805, 3.030e-4
-0.804, 3.057e-4
-0.803, 3.081e-4
-0.802, 3.105e-4
-0.801, 3.131e-4
-0.800, 3.155e-4
-0.799, 3.178e-4
-0.798, 3.201e-4
-0.797, 3.223e-4
-0.796, 3.246e-4
-0.795, 3.269e-4
-0.794, 3.289e-4
-0.793, 3.308e-4
-0.792, 3.329e-4
-0.791, 3.349e-4
-0.790, 3.368e-4
-0.789, 3.386e-4
-0.788, 3.406e-4
-0.787, 3.425e-4
-0.786, 3.441e-4
-0.785, 3.457e-4
-0.784, 3.474e-4
-0.783, 3.489e-4
-0.782, 3.505e-4
-0.781, 3.518e-4
-0.780, 3.532e-4
-0.779, 3.547e-4
-0.778, 3.558e-4
-0.777, 3.569e-4
-0.776, 3.580e-4
-0.775, 3.592e-4
-0.774, 3.601e-4
-0.773, 3.609e-4
-0.772, 3.617e-4
-0.771, 3.625e-4
-0.770, 3.631e-4
-0.769, 3.637e-4
-0.768, 3.642e-4
-0.767, 3.648e-4
-0.766, 3.651e-4
-0.765, 3.653e-4
-0.764, 3.654e-4
-0.763, 3.655e-4
-0.762, 3.655e-4
-0.761, 3.653e-4
-0.760, 3.651e-4
-0.759, 3.648e-4
-0.758, 3.645e-4
-0.757, 3.640e-4
-0.756, 3.633e-4
-0.755, 3.627e-4
-0.754, 3.621e-4
-0.753, 3.612e-4
-0.752, 3.602e-4
-0.751, 3.592e-4
-0.750, 3.581e-4
-0.749, 3.569e-4
-0.748, 3.555e-4
-0.747, 3.542e-4
-0.746, 3.528e-4
-0.745, 3.513e-4
-0.744, 3.496e-4
-0.743, 3.479e-4
-0.742, 3.460e-4
-0.741, 3.442e-4
-0.740, 3.423e-4
-0.739, 3.402e-4
-0.738, 3.382e-4
-0.737, 3.362e-4
-0.736, 3.340e-4
-0.735, 3.317e-4
-0.734, 3.295e-4
-0.733, 3.272e-4
-0.732, 3.248e-4
-0.731, 3.224e-4
-0.730, 3.200e-4
-0.729, 3.177e-4
-0.728, 3.152e-4
-0.727, 3.127e-4
-0.726, 3.102e-4
-0.725, 3.077e-4
-0.724, 3.052e-4
-0.723, 3.027e-4
-0.722, 3.001e-4
-0.721, 2.977e-4
-0.720, 2.951e-4
-0.719, 2.926e-4
-0.718, 2.901e-4
-0.717, 2.877e-4
-0.716, 2.853e-4
-0.715, 2.828e-4
-0.714, 2.803e-4
-0.713, 2.779e-4
-0.712, 2.756e-4
-0.711, 2.732e-4
-0.710, 2.708e-4
-0.709, 2.685e-4
-0.708, 2.663e-4
-0.707, 2.640e-4
-0.706, 2.617e-4
-0.705, 2.596e-4
-0.704, 2.575e-4
-0.703, 2.553e-4
-0.702, 2.532e-4
-0.701, 2.511e-4
-0.700, 2.491e-4
-0.699, 2.471e-4
-0.698, 2.451e-4
-0.697, 2.431e-4
-0.696, 2.412e-4
-0.695, 2.393e-4
-0.694, 2.374e-4
-0.693, 2.356e-4
-0.692, 2.338e-4
-0.691, 2.320e-4
-0.690, 2.302e-4
-0.689, 2.285e-4
-0.688, 2.268e-4
-0.687, 2.252e-4
-0.686, 2.235e-4
-0.685, 2.218e-4
-0.684, 2.202e-4
-0.683, 2.187e-4
-0.682, 2.171e-4
-0.681, 2.156e-4
-0.680, 2.141e-4
-0.679, 2.126e-4
-0.678, 2.111e-4
-0.677, 2.097e-4
-0.676, 2.082e-4
-0.675, 2.069e-4
-0.674, 2.055e-4
-0.673, 2.041e-4
-0.672, 2.028e-4
-0.671, 2.014e-4
-0.670, 2.002e-4
-0.669, 1.989e-4
-0.668, 1.976e-4
-0.667, 1.963e-4
-0.666, 1.951e-4
-0.665, 1.939e-4
-0.664, 1.926e-4
-0.663, 1.915e-4
-0.662, 1.903e-4
-0.661, 1.891e-4
-0.660, 1.880e-4
-0.659, 1.868e-4
-0.658, 1.857e-4
-0.657, 1.846e-4
-0.656, 1.835e-4
-0.655, 1.825e-4
-0.654, 1.814e-4
-0.653, 1.804e-4
-0.652, 1.793e-4
-0.651, 1.783e-4
-0.650, 1.773e-4
-0.649, 1.763e-4
-0.648, 1.753e-4
-0.647, 1.743e-4
-0.646, 1.734e-4
-0.645, 1.724e-4
-0.644, 1.715e-4
-0.643, 1.706e-4
-0.642, 1.696e-4
-0.641, 1.687e-4
-0.640, 1.678e-4
-0.639, 1.669e-4
-0.638, 1.661e-4
-0.637, 1.652e-4
-0.636, 1.643e-4
-0.635, 1.635e-4
-0.634, 1.626e-4
-0.633, 1.618e-4
-0.632, 1.610e-4
-0.631, 1.602e-4
-0.630, 1.593e-4
-0.629, 1.586e-4
-0.628, 1.578e-4
-0.627, 1.570e-4
-0.626, 1.562e-4
-0.625, 1.555e-4
-0.624, 1.547e-4
-0.623, 1.540e-4
-0.622, 1.532e-4
-0.621, 1.525e-4
-0.620, 1.518e-4
-0.619, 1.510e-4
-0.618, 1.503e-4
-0.617, 1.496e-4
-0.616, 1.489e-4
-0.615, 1.483e-4
-0.614, 1.476e-4
-0.613, 1.469e-4
-0.612, 1.462e-4
-0.611, 1.456e-4
-0.610, 1.449e-4
-0.609, 1.442e-4
-0.608, 1.436e-4
-0.607, 1.430e-4
-0.606, 1.423e-4
-0.605, 1.417e-4
-0.604, 1.410e-4
-0.603, 1.404e-4
-0.602, 1.398e-4
-0.601, 1.392e-4
-0.600, 1.386e-4
-0.599, 1.380e-4
-0.598, 1.374e-4
-0.597, 1.368e-4
-0.596, 1.362e-4
-0.595, 1.357e-4
-0.594, 1.351e-4
-0.593, 1.345e-4
-0.592, 1.340e-4
-0.591, 1.334e-4
-0.590, 1.329e-4
-0.589, 1.323e-4
-0.588, 1.317e-4
-0.587, 1.312e-4
-0.586, 1.307e-4
-0.585, 1.301e-4
-0.584, 1.296e-4
-0.583, 1.291e-4
-0.582, 1.285e-4
-0.581, 1.280e-4
-0.580, 1.275e-4
-0.579, 1.270e-4
-0.578, 1.265e-4
-0.577, 1.260e-4
-0.576, 1.255e-4
-0.575, 1.250e-4
-0.574, 1.245e-4
-0.573, 1.240e-4
-0.572, 1.235e-4
-0.571, 1.231e-4
-0.570, 1.226e-4
-0.569, 1.222e-4
-0.568, 1.217e-4
-0.567, 1.212e-4
-0.566, 1.208e-4
-0.565, 1.203e-4
-0.564, 1.198e-4
-0.563, 1.194e-4
-0.562, 1.190e-4
-0.561, 1.185e-4
-0.560, 1.181e-4
-0.559, 1.176e-4
-0.558, 1.172e-4
-0.557, 1.167e-4
-0.556, 1.163e-4
-0.555, 1.159e-4
-0.554, 1.155e-4
-0.553, 1.150e-4
-0.552, 1.146e-4
-0.551, 1.142e-4
-0.550, 1.138e-4
-0.549, 1.134e-4
-0.548, 1.130e-4
-0.547, 1.125e-4
-0.546, 1.121e-4
-0.545, 1.117e-4
-0.544, 1.114e-4
-0.543, 1.110e-4
-0.542, 1.106e-4
-0.541, 1.102e-4
-0.540, 1.098e-4
-0.539, 1.094e-4
-0.538, 1.090e-4
-0.537, 1.086e-4
-0.536, 1.083e-4
-0.535, 1.079e-4
-0.534, 1.075e-4
-0.533, 1.072e-4
-0.532, 1.068e-4
-0.531, 1.064e-4
-0.530, 1.061e-4
-0.529, 1.057e-4
-0.528, 1.053e-4
-0.527, 1.050e-4
-0.526, 1.046e-4
-0.525, 1.043e-4
-0.524, 1.039e-4
-0.523, 1.036e-4
-0.522, 1.032e-4
-0.521, 1.029e-4
-0.520, 1.026e-4
-0.519, 1.022e-4
-0.518, 1.019e-4
-0.517, 1.015e-4
-0.516, 1.012e-4
-0.515, 1.009e-4
-0.514, 1.006e-4
-0.513, 1.002e-4
-0.512, 9.992e-5
-0.511, 9.958e-5
-0.510, 9.928e-5
-0.509, 9.895e-5
-0.508, 9.861e-5
-0.507, 9.831e-5
-0.506, 9.800e-5
-0.505, 9.767e-5
-0.504, 9.736e-5
-0.503, 9.706e-5
-0.502, 9.676e-5
-0.501, 9.645e-5
-0.500, 9.606e-5
-0.501, 9.560e-5
-0.502, 9.523e-5
-0.503, 9.487e-5
-0.504, 9.454e-5
-0.505, 9.420e-5
-0.506, 9.387e-5
-0.507, 9.353e-5
-0.508, 9.320e-5
-0.509, 9.289e-5
-0.510, 9.259e-5
-0.511, 9.228e-5
-0.512, 9.195e-5
-0.513, 9.165e-5
-0.514, 9.134e-5
-0.515, 9.104e-5
-0.516, 9.073e-5
-0.517, 9.043e-5
-0.518, 9.016e-5
-0.519, 8.985e-5
-0.520, 8.955e-5
-0.521, 8.924e-5
-0.522, 8.897e-5
-0.523, 8.870e-5
-0.524, 8.839e-5
-0.525, 8.809e-5
-0.526, 8.781e-5
-0.527, 8.757e-5
-0.528, 8.727e-5
-0.529, 8.699e-5
-0.530, 8.672e-5
-0.531, 8.645e-5
-0.532, 8.617e-5
-0.533, 8.590e-5
-0.534, 8.565e-5
-0.535, 8.538e-5
-0.536, 8.511e-5
-0.537, 8.486e-5
-0.538, 8.459e-5
-0.539, 8.435e-5
-0.540, 8.407e-5
-0.541, 8.383e-5
-0.542, 8.356e-5
-0.543, 8.331e-5
-0.544, 8.307e-5
-0.545, 8.280e-5
-0.546, 8.255e-5
-0.547, 8.231e-5
-0.548, 8.207e-5
-0.549, 8.179e-5
-0.550, 8.155e-5
-0.551, 8.131e-5
-0.552, 8.106e-5
-0.553, 8.082e-5
-0.554, 8.055e-5
-0.555, 8.033e-5
-0.556, 8.009e-5
-0.557, 7.985e-5
-0.558, 7.960e-5
-0.559, 7.936e-5
-0.560, 7.912e-5
-0.561, 7.890e-5
-0.562, 7.866e-5
-0.563, 7.842e-5
-0.564, 7.820e-5
-0.565, 7.796e-5
-0.566, 7.772e-5
-0.567, 7.750e-5
-0.568, 7.729e-5
-0.569, 7.705e-5
-0.570, 7.680e-5
-0.571, 7.659e-5
-0.572, 7.638e-5
-0.573, 7.614e-5
-0.574, 7.592e-5
-0.575, 7.571e-5
-0.576, 7.547e-5
-0.577, 7.525e-5
-0.578, 7.504e-5
-0.579, 7.483e-5
-0.580, 7.458e-5
-0.581, 7.440e-5
-0.582, 7.416e-5
-0.583, 7.395e-5
-0.584, 7.373e-5
-0.585, 7.355e-5
-0.586, 7.334e-5
-0.587, 7.312e-5
-0.588, 7.291e-5
-0.589, 7.270e-5
-0.590, 7.252e-5
-0.591, 7.230e-5
-0.592, 7.209e-5
-0.593, 7.188e-5
-0.594, 7.170e-5
-0.595, 7.148e-5
-0.596, 7.127e-5
-0.597, 7.109e-5
-0.598, 7.087e-5
-0.599, 7.066e-5
-0.600, 7.045e-5
-0.601, 7.027e-5
-0.602, 7.005e-5
-0.603, 6.987e-5
-0.604, 6.966e-5
-0.605, 6.944e-5
-0.606, 6.926e-5
-0.607, 6.908e-5
-0.608, 6.887e-5
-0.609, 6.868e-5
-0.610, 6.850e-5
-0.611, 6.829e-5
-0.612, 6.811e-5
-0.613, 6.789e-5
-0.614, 6.771e-5
-0.615, 6.753e-5
-0.616, 6.732e-5
-0.617, 6.713e-5
-0.618, 6.695e-5
-0.619, 6.677e-5
-0.620, 6.656e-5
-0.621, 6.637e-5
-0.622, 6.619e-5
-0.623, 6.601e-5
-0.624, 6.580e-5
-0.625, 6.561e-5
-0.626, 6.543e-5
-0.627, 6.525e-5
-0.628, 6.507e-5
-0.629, 6.485e-5
-0.630, 6.467e-5
-0.631, 6.452e-5
-0.632, 6.430e-5
-0.633, 6.412e-5
-0.634, 6.394e-5
-0.635, 6.376e-5
-0.636, 6.358e-5
-0.637, 6.339e-5
-0.638, 6.321e-5
-0.639, 6.303e-5
-0.640, 6.285e-5
-0.641, 6.266e-5
-0.642, 6.248e-5
-0.643, 6.230e-5
-0.644, 6.212e-5
-0.645, 6.193e-5
-0.646, 6.175e-5
-0.647, 6.157e-5
-0.648, 6.139e-5
-0.649, 6.117e-5
-0.650, 6.102e-5
-0.651, 6.084e-5
-0.652, 6.062e-5
-0.653, 6.044e-5
-0.654, 6.026e-5
-0.655, 6.008e-5
-0.656, 5.990e-5
-0.657, 5.971e-5
-0.658, 5.950e-5
-0.659, 5.932e-5
-0.660, 5.917e-5
-0.661, 5.895e-5
-0.662, 5.874e-5
-0.663, 5.859e-5
-0.664, 5.837e-5
-0.665, 5.819e-5
-0.666, 5.798e-5
-0.667, 5.780e-5
-0.668, 5.761e-5
-0.669, 5.740e-5
-0.670, 5.719e-5
-0.671, 5.701e-5
-0.672, 5.679e-5
-0.673, 5.658e-5
-0.674, 5.640e-5
-0.675, 5.618e-5
-0.676, 5.597e-5
-0.677, 5.576e-5
-0.678, 5.555e-5
-0.679, 5.533e-5
-0.680, 5.512e-5
-0.681, 5.491e-5
-0.682, 5.466e-5
-0.683, 5.445e-5
-0.684, 5.424e-5
-0.685, 5.399e-5
-0.686, 5.375e-5
-0.687, 5.354e-5
-0.688, 5.333e-5
-0.689, 5.308e-5
-0.690, 5.284e-5
-0.691, 5.263e-5
-0.692, 5.238e-5
-0.693, 5.211e-5
-0.694, 5.187e-5
-0.695, 5.162e-5
-0.696, 5.135e-5
-0.697, 5.111e-5
-0.698, 5.083e-5
-0.699, 5.056e-5
-0.700, 5.028e-5
-0.701, 5.001e-5
-0.702, 4.971e-5
-0.703, 4.943e-5
-0.704, 4.913e-5
-0.705, 4.882e-5
-0.706, 4.852e-5
-0.707, 4.822e-5
-0.708, 4.791e-5
-0.709, 4.758e-5
-0.710, 4.724e-5
-0.711, 4.691e-5
-0.712, 4.657e-5
-0.713, 4.624e-5
-0.714, 4.587e-5
-0.715, 4.551e-5
-0.716, 4.514e-5
-0.717, 4.475e-5
-0.718, 4.435e-5
-0.719, 4.396e-5
-0.720, 4.356e-5
-0.721, 4.320e-5
-0.722, 4.274e-5
-0.723, 4.232e-5
-0.724, 4.189e-5
-0.725, 4.143e-5
-0.726, 4.098e-5
-0.727, 4.052e-5
-0.728, 4.004e-5
-0.729, 3.955e-5
-0.730, 3.906e-5
-0.731, 3.851e-5
-0.732, 3.797e-5
-0.733, 3.748e-5
-0.734, 3.693e-5
-0.735, 3.636e-5
-0.736, 3.575e-5
-0.737, 3.520e-5
-0.738, 3.459e-5
-0.739, 3.395e-5
-0.740, 3.334e-5
-0.741, 3.271e-5
-0.742, 3.210e-5
-0.743, 3.143e-5
-0.744, 3.067e-5
-0.745, 3.000e-5
-0.746, 2.930e-5
-0.747, 2.854e-5
-0.748, 2.775e-5
-0.749, 2.696e-5
-0.750, 2.623e-5
-0.751, 2.538e-5
-0.752, 2.449e-5
-0.753, 2.367e-5
-0.754, 2.282e-5
-0.755, 2.194e-5
-0.756, 2.100e-5
-0.757, 1.999e-5
-0.758, 1.911e-5
-0.759, 1.817e-5
-0.760, 1.710e-5
-0.761, 1.604e-5
-0.762, 1.507e-5
-0.763, 1.403e-5
-0.764, 1.285e-5
-0.765, 1.175e-5
-0.766, 1.063e-5
-0.767, 9.501e-6
-0.768, 8.193e-6
-0.769, 6.885e-6
-0.770, 5.699e-6
-0.771, 4.513e-6
-0.772, 3.205e-6
-0.773, 1.776e-6
-0.774, 4.682e-7
-0.775, -8.091e-7
-0.776, -2.239e-6
-0.777, -3.698e-6
-0.778, -5.158e-6
-0.779, -6.557e-6
-0.780, -8.108e-6
-0.781, -9.690e-6
-0.782, -1.127e-5
-0.783, -1.285e-5
-0.784, -1.443e-5
-0.785, -1.617e-5
-0.786, -1.787e-5
-0.787, -1.948e-5
-0.788, -2.116e-5
-0.789, -2.298e-5
-0.790, -2.484e-5
-0.791, -2.660e-5
-0.792, -2.842e-5
-0.793, -3.034e-5
-0.794, -3.213e-5
-0.795, -3.411e-5
-0.796, -3.597e-5
-0.797, -3.807e-5
-0.798, -4.010e-5
-0.799, -4.217e-5
-0.800, -4.418e-5
-0.801, -4.628e-5
-0.802, -4.856e-5
-0.803, -5.072e-5
-0.804, -5.278e-5
-0.805, -5.504e-5
-0.806, -5.732e-5
-0.807, -5.972e-5
-0.808, -6.194e-5
-0.809, -6.422e-5
-0.810, -6.662e-5
-0.811, -6.906e-5
-0.812, -7.140e-5
-0.813, -7.380e-5
-0.814, -7.629e-5
-0.815, -7.894e-5
-0.816, -8.137e-5
-0.817, -8.384e-5
-0.818, -8.651e-5
-0.819, -8.898e-5
-0.820, -9.126e-5
-0.821, -9.387e-5
-0.822, -9.661e-5
-0.823, -9.944e-5
-0.824, -1.021e-4
-0.825, -1.048e-4
-0.826, -1.076e-4
-0.827, -1.105e-4
-0.828, -1.133e-4
-0.829, -1.160e-4
-0.830, -1.188e-4
-0.831, -1.219e-4
-0.832, -1.248e-4
-0.833, -1.276e-4
-0.834, -1.305e-4
-0.835, -1.336e-4
-0.836, -1.367e-4
-0.837, -1.396e-4
-0.838, -1.425e-4
-0.839, -1.456e-4
-0.840, -1.488e-4
-0.841, -1.517e-4
-0.842, -1.548e-4
-0.843, -1.579e-4
-0.844, -1.611e-4
-0.845, -1.641e-4
-0.846, -1.671e-4
-0.847, -1.703e-4
-0.848, -1.736e-4
-0.849, -1.767e-4
-0.850, -1.799e-4
-0.851, -1.831e-4
-0.852, -1.864e-4
-0.853, -1.897e-4
-0.854, -1.928e-4
-0.855, -1.961e-4
-0.856, -1.995e-4
-0.857, -2.028e-4
-0.858, -2.061e-4
-0.859, -2.094e-4
-0.860, -2.128e-4
-0.861, -2.161e-4
-0.862, -2.194e-4
-0.863, -2.227e-4
-0.864, -2.260e-4
-0.865, -2.295e-4
-0.866, -2.328e-4
-0.867, -2.361e-4
-0.868, -2.395e-4
-0.869, -2.430e-4
-0.870, -2.464e-4
-0.871, -2.499e-4
-0.872, -2.533e-4
-0.873, -2.568e-4
-0.874, -2.602e-4
-0.875, -2.635e-4
-0.876, -2.668e-4
-0.877, -2.703e-4
-0.878, -2.737e-4
-0.879, -2.770e-4
-0.880, -2.804e-4
-0.881, -2.839e-4
-0.882, -2.874e-4
-0.883, -2.907e-4
-0.884, -2.941e-4
-0.885, -2.976e-4
-0.886, -3.010e-4
-0.887, -3.043e-4
-0.888, -3.076e-4
-0.889, -3.110e-4
-0.890, -3.144e-4
-0.891, -3.177e-4
-0.892, -3.210e-4
-0.893, -3.244e-4
-0.894, -3.279e-4
-0.895, -3.311e-4
-0.896, -3.342e-4
-0.897, -3.374e-4
-0.898, -3.408e-4
-0.899, -3.441e-4
-0.900, -3.472e-4
-0.901, -3.505e-4
-0.902, -3.538e-4
-0.903, -3.571e-4
-0.904, -3.602e-4
-0.905, -3.633e-4
-0.906, -3.666e-4
-0.907, -3.698e-4
-0.908, -3.729e-4
-0.909, -3.760e-4
-0.910, -3.791e-4
-0.911, -3.823e-4
-0.912, -3.853e-4
-0.913, -3.882e-4
-0.914, -3.913e-4
-0.915, -3.943e-4
-0.916, -3.972e-4
-0.917, -4.000e-4
-0.918, -4.030e-4
-0.919, -4.060e-4
-0.920, -4.088e-4
-0.921, -4.116e-4
-0.922, -4.145e-4
-0.923, -4.173e-4
-0.924, -4.201e-4
-0.925, -4.227e-4
-0.926, -4.253e-4
-0.927, -4.281e-4
-0.928, -4.306e-4
-0.929, -4.330e-4
-0.930, -4.356e-4
-0.931, -4.381e-4
-0.932, -4.405e-4
-0.933, -4.429e-4
-0.934, -4.451e-4
-0.935, -4.475e-4
-0.936, -4.499e-4
-0.937, -4.520e-4
-0.938, -4.541e-4
-0.939, -4.562e-4
-0.940, -4.583e-4
-0.941, -4.603e-4
-0.942, -4.621e-4
-0.943, -4.641e-4
-0.944, -4.660e-4
-0.945, -4.677e-4
-0.946, -4.694e-4
-0.947, -4.710e-4
-0.948, -4.725e-4
-0.949, -4.741e-4
-0.950, -4.754e-4
-0.951, -4.769e-4
-0.952, -4.784e-4
-0.953, -4.796e-4
-0.954, -4.808e-4
-0.955, -4.818e-4
-0.956, -4.830e-4
-0.957, -4.840e-4
-0.958, -4.849e-4
-0.959, -4.857e-4
-0.960, -4.866e-4
-0.961, -4.873e-4
-0.962, -4.879e-4
-0.963, -4.883e-4
-0.964, -4.888e-4
-0.965, -4.892e-4
-0.966, -4.894e-4
-0.967, -4.895e-4
-0.968, -4.897e-4
-0.969, -4.898e-4
-0.970, -4.896e-4
-0.971, -4.894e-4
-0.972, -4.891e-4
-0.973, -4.891e-4
-0.974, -4.886e-4
-0.975, -4.880e-4
-0.976, -4.874e-4
-0.977, -4.867e-4
-0.978, -4.859e-4
-0.979, -4.849e-4
-0.980, -4.838e-4
-0.981, -4.828e-4
-0.982, -4.816e-4
-0.983, -4.802e-4
-0.984, -4.788e-4
-0.985, -4.774e-4
-0.986, -4.760e-4
-0.987, -4.743e-4
-0.988, -4.725e-4
-0.989, -4.707e-4
-0.990, -4.689e-4
-0.991, -4.670e-4
-0.992, -4.649e-4
-0.993, -4.628e-4
-0.994, -4.607e-4
-0.995, -4.585e-4
-0.996, -4.562e-4
-0.997, -4.539e-4
-0.998, -4.515e-4
-0.999, -4.490e-4
-1.000, -4.466e-4
-1.001, -4.441e-4
-1.002, -4.416e-4
-1.003, -4.392e-4
-1.004, -4.365e-4
-1.005, -4.340e-4
-1.006, -4.314e-4
-1.007, -4.289e-4
-1.008, -4.262e-4
-1.009, -4.236e-4
-1.010, -4.211e-4
-1.011, -4.185e-4
-1.012, -4.159e-4
-1.013, -4.133e-4
-1.014, -4.107e-4
-1.015, -4.082e-4
-1.016, -4.057e-4
-1.017, -4.031e-4
-1.018, -4.006e-4
-1.019, -3.982e-4
-1.020, -3.958e-4
-1.021, -3.933e-4
-1.022, -3.909e-4
-1.023, -3.886e-4
-1.024, -3.863e-4
-1.025, -3.840e-4
-1.026, -3.817e-4
-1.027, -3.795e-4
-1.028, -3.772e-4
-1.029, -3.750e-4
-1.030, -3.729e-4
-1.031, -3.708e-4
-1.032, -3.687e-4
-1.033, -3.666e-4
-1.034, -3.645e-4
-1.035, -3.626e-4
-1.036, -3.606e-4
-1.037, -3.587e-4
-1.038, -3.567e-4
-1.039, -3.549e-4
-1.040, -3.531e-4
-1.041, -3.512e-4
-1.042, -3.494e-4
-1.043, -3.476e-4
-1.044, -3.459e-4
-1.045, -3.442e-4
-1.046, -3.425e-4
-1.047, -3.409e-4
-1.048, -3.392e-4
-1.049, -3.376e-4
-1.050, -3.360e-4
-1.051, -3.344e-4
-1.052, -3.329e-4
-1.053, -3.314e-4
-1.054, -3.299e-4
-1.055, -3.284e-4
-1.056, -3.270e-4
-1.057, -3.255e-4
-1.058, -3.241e-4
-1.059, -3.227e-4
-1.060, -3.213e-4
-1.061, -3.200e-4
-1.062, -3.187e-4
-1.063, -3.173e-4
-1.064, -3.160e-4
-1.065, -3.148e-4
-1.066, -3.135e-4
-1.067, -3.122e-4
-1.068, -3.110e-4
-1.069, -3.098e-4
-1.070, -3.086e-4
-1.071, -3.074e-4
-1.072, -3.062e-4
-1.073, -3.051e-4
-1.074, -3.039e-4
-1.075, -3.028e-4
-1.076, -3.017e-4
-1.077, -3.006e-4
-1.078, -2.995e-4
-1.079, -2.984e-4
-1.080, -2.974e-4
-1.081, -2.963e-4
-1.082, -2.953e-4
-1.083, -2.943e-4
-1.084, -2.932e-4
-1.085, -2.922e-4
-1.086, -2.913e-4
-1.087, -2.902e-4
-1.088, -2.893e-4
-1.089, -2.883e-4
-1.090, -2.874e-4
-1.091, -2.864e-4
-1.092, -2.855e-4
-1.093, -2.846e-4
-1.094, -2.837e-4
-1.095, -2.828e-4
-1.096, -2.819e-4
-1.097, -2.810e-4
-1.098, -2.802e-4
-1.099, -2.793e-4
-1.100, -2.785e-4
-1.101, -2.776e-4
-1.102, -2.768e-4
-1.103, -2.760e-4
-1.104, -2.752e-4
-1.105, -2.743e-4
-1.106, -2.736e-4
-1.107, -2.728e-4
-1.108, -2.720e-4
-1.109, -2.712e-4
-1.110, -2.705e-4
-1.111, -2.697e-4
-1.112, -2.690e-4
-1.113, -2.682e-4
-1.114, -2.675e-4
-1.115, -2.667e-4
-1.116, -2.660e-4
-1.117, -2.653e-4
-1.118, -2.646e-4
-1.119, -2.639e-4
-1.120, -2.632e-4
-1.121, -2.625e-4
-1.122, -2.618e-4
-1.123, -2.612e-4
-1.124, -2.605e-4
-1.125, -2.599e-4
-1.126, -2.592e-4
-1.127, -2.586e-4
-1.128, -2.579e-4
-1.129, -2.573e-4
-1.130, -2.566e-4
-1.131, -2.560e-4
-1.132, -2.554e-4
-1.133, -2.548e-4
-1.134, -2.541e-4
-1.135, -2.535e-4
-1.136, -2.529e-4
-1.137, -2.523e-4
-1.138, -2.517e-4
-1.139, -2.511e-4
-1.140, -2.505e-4
-1.141, -2.500e-4
-1.142, -2.494e-4
-1.143, -2.488e-4
-1.144, -2.482e-4
-1.145, -2.477e-4
-1.146, -2.471e-4
-1.147, -2.465e-4
-1.148, -2.460e-4
-1.149, -2.455e-4
-1.150, -2.449e-4
-1.151, -2.444e-4
-1.152, -2.438e-4
-1.153, -2.433e-4
-1.154, -2.428e-4
-1.155, -2.423e-4
-1.156, -2.418e-4
-1.157, -2.413e-4
-1.158, -2.408e-4
-1.159, -2.403e-4
-1.160, -2.398e-4
-1.161, -2.393e-4
-1.162, -2.388e-4
-1.163, -2.384e-4
-1.164, -2.379e-4
-1.165, -2.374e-4
-1.166, -2.369e-4
-1.167, -2.365e-4
-1.168, -2.360e-4
-1.169, -2.356e-4
-1.170, -2.351e-4
-1.171, -2.347e-4
-1.172, -2.342e-4
-1.173, -2.337e-4
-1.174, -2.333e-4
-1.175, -2.329e-4
-1.176, -2.324e-4
-1.177, -2.320e-4
-1.178, -2.316e-4
-1.179, -2.311e-4
-1.180, -2.307e-4
-1.181, -2.302e-4
-1.182, -2.298e-4
-1.183, -2.294e-4
-1.184, -2.290e-4
-1.185, -2.285e-4
-1.186, -2.281e-4
-1.187, -2.278e-4
-1.188, -2.273e-4
-1.189, -2.269e-4
-1.190, -2.265e-4
-1.191, -2.261e-4
-1.192, -2.257e-4
-1.193, -2.253e-4
-1.194, -2.250e-4
-1.195, -2.246e-4
-1.196, -2.242e-4
-1.197, -2.238e-4
-1.198, -2.234e-4
-1.199, -2.231e-4
-1.200, -2.226e-4
-1.199, -2.219e-4
-1.198, -2.213e-4
-1.197, -2.208e-4
-1.196, -2.203e-4
-1.195, -2.198e-4
-1.194, -2.194e-4
-1.193, -2.189e-4
-1.192, -2.185e-4
-1.191, -2.181e-4
-1.190, -2.177e-4
-1.189, -2.173e-4
-1.188, -2.169e-4
-1.187, -2.164e-4
-1.186, -2.160e-4
-1.185, -2.157e-4
-1.184, -2.153e-4
-1.183, -2.149e-4
-1.182, -2.145e-4
-1.181, -2.142e-4
-1.180, -2.138e-4
-1.179, -2.135e-4
-1.178, -2.131e-4
-1.177, -2.127e-4
-1.176, -2.124e-4
-1.175, -2.121e-4
-1.174, -2.117e-4
-1.173, -2.114e-4
-1.172, -2.110e-4
-1.171, -2.107e-4
-1.170, -2.104e-4
-1.169, -2.101e-4
-1.168, -2.097e-4
-1.167, -2.094e-4
-1.166, -2.091e-4
-1.165, -2.087e-4
-1.164, -2.084e-4
-1.163, -2.081e-4
-1.162, -2.078e-4
-1.161, -2.075e-4
-1.160, -2.071e-4
-1.159, -2.068e-4
-1.158, -2.065e-4
-1.157, -2.062e-4
-1.156, -2.059e-4
-1.155, -2.056e-4
-1.154, -2.053e-4
-1.153, -2.050e-4
-1.152, -2.047e-4
-1.151, -2.044e-4
-1.150, -2.041e-4
-1.149, -2.038e-4
-1.148, -2.035e-4
-1.147, -2.032e-4
-1.146, -2.029e-4
-1.145, -2.026e-4
-1.144, -2.024e-4
-1.143, -2.021e-4
-1.142, -2.018e-4
-1.141, -2.015e-4
-1.140, -2.012e-4
-1.139, -2.010e-4
-1.138, -2.007e-4
-1.137, -2.004e-4
-1.136, -2.001e-4
-1.135, -1.999e-4
-1.134, -1.996e-4
-1.133, -1.993e-4
-1.132, -1.991e-4
-1.131, -1.988e-4
-1.130, -1.986e-4
-1.129, -1.983e-4
-1.128, -1.980e-4
-1.127, -1.978e-4
-1.126, -1.975e-4
-1.125, -1.973e-4
-1.124, -1.970e-4
-1.123, -1.968e-4
-1.122, -1.965e-4
-1.121, -1.963e-4
-1.120, -1.960e-4
-1.119, -1.958e-4
-1.118, -1.955e-4
-1.117, -1.953e-4
-1.116, -1.950e-4
-1.115, -1.948e-4
-1.114, -1.945e-4
-1.113, -1.943e-4
-1.112, -1.940e-4
-1.111, -1.938e-4
-1.110, -1.935e-4
-1.109, -1.933e-4
-1.108, -1.930e-4
-1.107, -1.928e-4
-1.106, -1.925e-4
-1.105, -1.923e-4
-1.104, -1.920e-4
-1.103, -1.918e-4
-1.102, -1.915e-4
-1.101, -1.913e-4
-1.100, -1.911e-4
-1.099, -1.908e-4
-1.098, -1.906e-4
-1.097, -1.903e-4
-1.096, -1.901e-4
-1.095, -1.899e-4
-1.094, -1.896e-4
-1.093, -1.894e-4
-1.092, -1.892e-4
-1.091, -1.889e-4
-1.090, -1.887e-4
-1.089, -1.885e-4
-1.088, -1.882e-4
-1.087, -1.880e-4
-1.086, -1.878e-4
-1.085, -1.875e-4
-1.084, -1.873e-4
-1.083, -1.871e-4
-1.082, -1.869e-4
-1.081, -1.866e-4
-1.080, -1.864e-4
-1.079, -1.862e-4
-1.078, -1.860e-4
-1.077, -1.857e-4
-1.076, -1.855e-4
-1.075, -1.853e-4
-1.074, -1.850e-4
-1.073, -1.848e-4
-1.072, -1.846e-4
-1.071, -1.844e-4
-1.070, -1.841e-4
-1.069, -1.839e-4
-1.068, -1.837e-4
-1.067, -1.834e-4
-1.066, -1.832e-4
-1.065, -1.830e-4
-1.064, -1.827e-4
-1.063, -1.825e-4
-1.062, -1.822e-4
-1.061, -1.820e-4
-1.060, -1.817e-4
-1.059, -1.815e-4
-1.058, -1.812e-4
-1.057, -1.810e-4
-1.056, -1.808e-4
-1.055, -1.805e-4
-1.054, -1.802e-4
-1.053, -1.800e-4
-1.052, -1.798e-4
-1.051, -1.795e-4
-1.050, -1.792e-4
-1.049, -1.790e-4
-1.048, -1.788e-4
-1.047, -1.785e-4
-1.046, -1.782e-4
-1.045, -1.780e-4
-1.044, -1.777e-4
-1.043, -1.774e-4
-1.042, -1.772e-4
-1.041, -1.769e-4
-1.040, -1.767e-4
-1.039, -1.764e-4
-1.038, -1.761e-4
-1.037, -1.758e-4
-1.036, -1.755e-4
-1.035, -1.753e-4
-1.034, -1.750e-4
-1.033, -1.746e-4
-1.032, -1.744e-4
-1.031, -1.741e-4
-1.030, -1.738e-4
-1.029, -1.734e-4
-1.028, -1.731e-4
-1.027, -1.729e-4
-1.026, -1.725e-4
-1.025, -1.722e-4
-1.024, -1.718e-4
-1.023, -1.715e-4
-1.022, -1.712e-4
-1.021, -1.708e-4
-1.020, -1.705e-4
-1.019, -1.701e-4
-1.018, -1.698e-4
-1.017, -1.694e-4
-1.016, -1.691e-4
-1.015, -1.687e-4
-1.014, -1.684e-4
-1.013, -1.680e-4
-1.012, -1.675e-4
-1.011, -1.672e-4
-1.010, -1.668e-4
-1.009, -1.663e-4
-1.008, -1.659e-4
-1.007, -1.655e-4
-1.006, -1.650e-4
-1.005, -1.646e-4
-1.004, -1.641e-4
-1.003, -1.636e-4
-1.002, -1.632e-4
-1.001, -1.627e-4
-1.000, -1.621e-4
-0.999, -1.616e-4
-0.998, -1.612e-4
-0.997, -1.606e-4
-0.996, -1.601e-4
-0.995, -1.595e-4
-0.994, -1.590e-4
-0.993, -1.583e-4
-0.992, -1.577e-4
-0.991, -1.571e-4
-0.990, -1.565e-4
-0.989, -1.559e-4
-0.988, -1.552e-4
-0.987, -1.545e-4
-0.986, -1.539e-4
-0.985, -1.532e-4
-0.984, -1.525e-4
-0.983, -1.517e-4
-0.982, -1.510e-4
-0.981, -1.502e-4
-0.980, -1.494e-4
-0.979, -1.486e-4
-0.978, -1.478e-4
-0.977, -1.470e-4
-0.976, -1.462e-4
-0.975, -1.453e-4
-0.974, -1.444e-4
-0.973, -1.435e-4
-0.972, -1.425e-4
-0.971, -1.415e-4
-0.970, -1.405e-4
-0.969, -1.396e-4
-0.968, -1.386e-4
-0.967, -1.376e-4
-0.966, -1.365e-4
-0.965, -1.355e-4
-0.964, -1.344e-4
-0.963, -1.333e-4
-0.962, -1.320e-4
-0.961, -1.309e-4
-0.960, -1.298e-4
-0.959, -1.285e-4
-0.958, -1.272e-4
-0.957, -1.260e-4
-0.956, -1.248e-4
-0.955, -1.234e-4
-0.954, -1.220e-4
-0.953, -1.206e-4
-0.952, -1.193e-4
-0.951, -1.179e-4
-0.950, -1.163e-4
-0.949, -1.149e-4
-0.948, -1.134e-4
-0.947, -1.120e-4
-0.946, -1.104e-4
-0.945, -1.087e-4
-0.944, -1.072e-4
-0.943, -1.056e-4
-0.942, -1.038e-4
-0.941, -1.021e-4
-0.940, -1.004e-4
-0.939, -9.871e-5
-0.938, -9.685e-5
-0.937, -9.503e-5
-0.936, -9.323e-5
-0.935, -9.144e-5
-0.934, -8.943e-5
-0.933, -8.746e-5
-0.932, -8.554e-5
-0.931, -8.368e-5
-0.930, -8.165e-5
-0.929, -7.952e-5
-0.928, -7.748e-5
-0.927, -7.547e-5
-0.926, -7.331e-5
-0.925, -7.109e-5
-0.924, -6.890e-5
-0.923, -6.681e-5
-0.922, -6.462e-5
-0.921, -6.215e-5
-0.920, -5.981e-5
-0.919, -5.759e-5
-0.918, -5.537e-5
-0.917, -5.288e-5
-0.916, -5.044e-5
-0.915, -4.813e-5
-0.914, -4.582e-5
-0.913, -4.320e-5
-0.912, -4.071e-5
-0.911, -3.825e-5
-0.910, -3.578e-5
-0.909, -3.314e-5
-0.908, -3.043e-5
-0.907, -2.785e-5
-0.906, -2.532e-5
-0.905, -2.265e-5
-0.904, -1.985e-5
-0.903, -1.723e-5
-0.902, -1.462e-5
-0.901, -1.185e-5
-0.900, -8.960e-6
-0.899, -6.192e-6
-0.898, -3.516e-6
-0.897, -6.571e-7
-0.896, 2.232e-6
-0.895, 5.000e-6
-0.894, 7.889e-6
-0.893, 1.069e-5
-0.892, 1.370e-5
-0.891, 1.674e-5
-0.890, 1.963e-5
-0.889, 2.255e-5
-0.888, 2.565e-5
-0.887, 2.872e-5
-0.886, 3.170e-5
-0.885, 3.462e-5
-0.884, 3.782e-5
-0.883, 4.107e-5
-0.882, 4.402e-5
-0.881, 4.709e-5
-0.880, 5.022e-5
-0.879, 5.342e-5
-0.878, 5.658e-5
-0.877, 5.965e-5
-0.876, 6.281e-5
-0.875, 6.616e-5
-0.874, 6.935e-5
-0.873, 7.246e-5
-0.872, 7.562e-5
-0.871, 7.896e-5
-0.870, 8.249e-5
-0.869, 8.565e-5
-0.868, 8.888e-5
-0.867, 9.228e-5
-0.866, 9.557e-5
-0.865, 9.879e-5
-0.864, 1.020e-4
-0.863, 1.053e-4
-0.862, 1.087e-4
-0.861, 1.120e-4
-0.860, 1.151e-4
-0.859, 1.185e-4
-0.858, 1.220e-4
-0.857, 1.253e-4
-0.856, 1.286e-4
-0.855, 1.319e-4
-0.854, 1.353e-4
-0.853, 1.386e-4
-0.852, 1.419e-4
-0.851, 1.452e-4
-0.850, 1.485e-4
-0.849, 1.520e-4
-0.848, 1.552e-4
-0.847, 1.585e-4
-0.846, 1.620e-4
-0.845, 1.652e-4
-0.844, 1.683e-4
-0.843, 1.715e-4
-0.842, 1.750e-4
-0.841, 1.783e-4
-0.840, 1.816e-4
-0.839, 1.848e-4
-0.838, 1.881e-4
-0.837, 1.915e-4
-0.836, 1.947e-4
-0.835, 1.979e-4
-0.834, 2.012e-4
-0.833, 2.045e-4
-0.832, 2.078e-4
-0.831, 2.109e-4
-0.830, 2.142e-4
-0.829, 2.175e-4
-0.828, 2.206e-4
-0.827, 2.238e-4
-0.826, 2.269e-4
-0.825, 2.301e-4
-0.824, 2.333e-4
-0.823, 2.362e-4
-0.822, 2.393e-4
-0.821, 2.425e-4
-0.820, 2.456e-4
-0.819, 2.481e-4
-0.818, 2.509e-4
-0.817, 2.541e-4
-0.816, 2.571e-4
-0.815, 2.600e-4
-0.814, 2.628e-4
-0.813, 2.658e-4
-0.812, 2.688e-4
-0.811, 2.716e-4
-0.810, 2.742e-4
-0.809, 2.771e-4
-0.808, 2.800e-4
-0.807, 2.827e-4
-0.806, 2.854e-4
-0.805, 2.881e-4
-0.804, 2.909e-4
-0.803, 2.934e-4
-0.802, 2.959e-4
-0.801, 2.984e-4
-0.800, 3.010e-4
-0.799, 3.034e-4
-0.798, 3.058e-4
-0.797, 3.081e-4
-0.796, 3.105e-4
-0.795, 3.129e-4
-0.794, 3.150e-4
-0.793, 3.169e-4
-0.792, 3.192e-4
-0.791, 3.214e-4
-0.790, 3.234e-4
-0.789, 3.253e-4
-0.788, 3.274e-4
-0.787, 3.293e-4
-0.786, 3.311e-4
-0.785, 3.329e-4
-0.784, 3.347e-4
-0.783, 3.364e-4
-0.782, 3.380e-4
-0.781, 3.395e-4
-0.780, 3.410e-4
-0.779, 3.426e-4
-0.778, 3.440e-4
-0.777, 3.451e-4
-0.776, 3.464e-4
-0.775, 3.477e-4
-0.774, 3.487e-4
-0.773, 3.497e-4
-0.772, 3.506e-4
-0.771, 3.516e-4
-0.770, 3.524e-4
-0.769, 3.531e-4
-0.768, 3.538e-4
-0.767, 3.546e-4
-0.766, 3.551e-4
-0.765, 3.554e-4
-0.764, 3.557e-4
-0.763, 3.560e-4
-0.762, 3.563e-4
-0.761, 3.562e-4
-0.760, 3.561e-4
-0.759, 3.561e-4
-0.758, 3.560e-4
-0.757, 3.557e-4
-0.756, 3.552e-4
-0.755, 3.548e-4
-0.754, 3.543e-4
-0.753, 3.537e-4
-0.752, 3.529e-4
-0.751, 3.520e-4
-0.750, 3.512e-4
-0.749, 3.502e-4
-0.748, 3.490e-4
-0.747, 3.478e-4
-0.746, 3.466e-4
-0.745, 3.453e-4
-0.744, 3.437e-4
-0.743, 3.421e-4
-0.742, 3.405e-4
-0.741, 3.388e-4
-0.740, 3.371e-4
-0.739, 3.351e-4
-0.738, 3.333e-4
-0.737, 3.314e-4
-0.736, 3.293e-4
-0.735, 3.271e-4
-0.734, 3.251e-4
-0.733, 3.229e-4
-0.732, 3.206e-4
-0.731, 3.183e-4
-0.730, 3.160e-4
-0.729, 3.138e-4
-0.728, 3.113e-4
-0.727, 3.089e-4
-0.726, 3.064e-4
-0.725, 3.040e-4
-0.724, 3.015e-4
-0.723, 2.989e-4
-0.722, 2.964e-4
-0.721, 2.940e-4
-0.720, 2.915e-4
-0.719, 2.890e-4
-0.718, 2.865e-4
-0.717, 2.841e-4
-0.716, 2.817e-4
-0.715, 2.792e-4
-0.714, 2.767e-4
-0.713, 2.743e-4
-0.712, 2.719e-4
-0.711, 2.695e-4
-0.710, 2.671e-4
-0.709, 2.648e-4
-0.708, 2.625e-4
-0.707, 2.602e-4
-0.706, 2.579e-4
-0.705, 2.558e-4
-0.704, 2.536e-4
-0.703, 2.514e-4
-0.702, 2.492e-4
-0.701, 2.471e-4
-0.700, 2.451e-4
-0.699, 2.430e-4
-0.698, 2.410e-4
-0.697, 2.390e-4
-0.696, 2.371e-4
-0.695, 2.351e-4
-0.694, 2.332e-4
-0.693, 2.313e-4
-0.692, 2.295e-4
-0.691, 2.277e-4
-0.690, 2.259e-4
-0.689, 2.241e-4
-0.688, 2.224e-4
-0.687, 2.207e-4
-0.686, 2.190e-4
-0.685, 2.173e-4
-0.684, 2.157e-4
-0.683, 2.141e-4
-0.682, 2.125e-4
-0.681, 2.110e-4
-0.680, 2.094e-4
-0.679, 2.079e-4
-0.678, 2.064e-4
-0.677, 2.049e-4
-0.676, 2.035e-4
-0.675, 2.020e-4
-0.674, 2.006e-4
-0.673, 1.992e-4
-0.672, 1.979e-4
-0.671, 1.965e-4
-0.670, 1.952e-4
-0.669, 1.939e-4
-0.668, 1.926e-4
-0.667, 1.914e-4
-0.666, 1.901e-4
-0.665, 1.889e-4
-0.664, 1.877e-4
-0.663, 1.864e-4
-0.662, 1.853e-4
-0.661, 1.841e-4
-0.660, 1.829e-4
-0.659, 1.818e-4
-0.658, 1.807e-4
-0.657, 1.796e-4
-0.656, 1.785e-4
-0.655, 1.774e-4
-0.654, 1.763e-4
-0.653, 1.753e-4
-0.652, 1.742e-4
-0.651, 1.732e-4
-0.650, 1.722e-4
-0.649, 1.712e-4
-0.648, 1.702e-4
-0.647, 1.692e-4
-0.646, 1.682e-4
-0.645, 1.673e-4
-0.644, 1.663e-4
-0.643, 1.654e-4
-0.642, 1.645e-4
-0.641, 1.636e-4
-0.640, 1.627e-4
-0.639, 1.618e-4
-0.638, 1.609e-4
-0.637, 1.600e-4
-0.636, 1.592e-4
-0.635, 1.583e-4
-0.634, 1.575e-4
-0.633, 1.567e-4
-0.632, 1.558e-4
-0.631, 1.550e-4
-0.630, 1.542e-4
-0.629, 1.534e-4
-0.628, 1.526e-4
-0.627, 1.518e-4
-0.626, 1.510e-4
-0.625, 1.503e-4
-0.624, 1.496e-4
-0.623, 1.488e-4
-0.622, 1.480e-4
-0.621, 1.473e-4
-0.620, 1.466e-4
-0.619, 1.459e-4
-0.618, 1.452e-4
-0.617, 1.444e-4
-0.616, 1.438e-4
-0.615, 1.431e-4
-0.614, 1.424e-4
-0.613, 1.417e-4
-0.612, 1.411e-4
-0.611, 1.404e-4
-0.610, 1.397e-4
-0.609, 1.391e-4
-0.608, 1.385e-4
-0.607, 1.378e-4
-0.606, 1.372e-4
-0.605, 1.366e-4
-0.604, 1.359e-4
-0.603, 1.353e-4
-0.602, 1.347e-4
-0.601, 1.341e-4
-0.600, 1.335e-4
-0.599, 1.329e-4
-0.598, 1.323e-4
-0.597, 1.318e-4
-0.596, 1.312e-4
-0.595, 1.306e-4
-0.594, 1.301e-4
-0.593, 1.295e-4
-0.592, 1.289e-4
-0.591, 1.284e-4
-0.590, 1.278e-4
-0.589, 1.273e-4
-0.588, 1.267e-4
-0.587, 1.262e-4
-0.586, 1.257e-4
-0.585, 1.251e-4
-0.584, 1.246e-4
-0.583, 1.241e-4
-0.582, 1.236e-4
-0.581, 1.231e-4
-0.580, 1.226e-4
-0.579, 1.221e-4
-0.578, 1.216e-4
-0.577, 1.211e-4
-0.576, 1.206e-4
-0.575, 1.201e-4
-0.574, 1.196e-4
-0.573, 1.191e-4
-0.572, 1.187e-4
-0.571, 1.182e-4
-0.570, 1.177e-4
-0.569, 1.173e-4
-0.568, 1.168e-4
-0.567, 1.163e-4
-0.566, 1.159e-4
-0.565, 1.154e-4
-0.564, 1.150e-4
-0.563, 1.145e-4
-0.562, 1.141e-4
-0.561, 1.137e-4
-0.560, 1.132e-4
-0.559, 1.128e-4
-0.558, 1.124e-4
-0.557, 1.119e-4
-0.556, 1.115e-4
-0.555, 1.111e-4
-0.554, 1.107e-4
-0.553, 1.103e-4
-0.552, 1.099e-4
-0.551, 1.094e-4
-0.550, 1.090e-4
-0.549, 1.086e-4
-0.548, 1.083e-4
-0.547, 1.079e-4
-0.546, 1.075e-4
-0.545, 1.071e-4
-0.544, 1.067e-4
-0.543, 1.063e-4
-0.542, 1.059e-4
-0.541, 1.055e-4
-0.540, 1.052e-4
-0.539, 1.048e-4
-0.538, 1.044e-4
-0.537, 1.040e-4
-0.536, 1.037e-4
-0.535, 1.033e-4
-0.534, 1.030e-4
-0.533, 1.026e-4
-0.532, 1.023e-4
-0.531, 1.019e-4
-0.530, 1.015e-4
-0.529, 1.012e-4
-0.528, 1.008e-4
-0.527, 1.005e-4
-0.526, 1.001e-4
-0.525, 9.977e-5
-0.524, 9.943e-5
-0.523, 9.910e-5
-0.522, 9.873e-5
-0.521, 9.840e-5
-0.520, 9.806e-5
-0.519, 9.773e-5
-0.518, 9.739e-5
-0.517, 9.706e-5
-0.516, 9.673e-5
-0.515, 9.642e-5
-0.514, 9.609e-5
-0.513, 9.575e-5
-0.512, 9.545e-5
-0.511, 9.514e-5
-0.510, 9.484e-5
-0.509, 9.454e-5
-0.508, 9.420e-5
-0.507, 9.393e-5
-0.506, 9.362e-5
-0.505, 9.329e-5
-0.504, 9.301e-5
-0.503, 9.271e-5
-0.502, 9.244e-5
-0.501, 9.213e-5
-0.500, 9.174e-5
-0.501, 9.131e-5
-0.502, 9.095e-5
-0.503, 9.058e-5
-0.504, 9.025e-5
-0.505, 8.994e-5
-0.506, 8.961e-5
-0.507, 8.930e-5
-0.508, 8.897e-5
-0.509, 8.867e-5
-0.510, 8.839e-5
-0.511, 8.806e-5
-0.512, 8.775e-5
-0.513, 8.748e-5
-0.514, 8.718e-5
-0.515, 8.690e-5
-0.516, 8.660e-5
-0.517, 8.629e-5
-0.518, 8.602e-5
-0.519, 8.575e-5
-0.520, 8.544e-5
-0.521, 8.517e-5
-0.522, 8.489e-5
-0.523, 8.462e-5
-0.524, 8.435e-5
-0.525, 8.404e-5
-0.526, 8.377e-5
-0.527, 8.353e-5
-0.528, 8.322e-5
-0.529, 8.295e-5
-0.530, 8.267e-5
-0.531, 8.243e-5
-0.532, 8.216e-5
-0.533, 8.188e-5
-0.534, 8.164e-5
-0.535, 8.137e-5
-0.536, 8.109e-5
-0.537, 8.085e-5
-0.538, 8.061e-5
-0.539, 8.036e-5
-0.540, 8.009e-5
-0.541, 7.985e-5
-0.542, 7.960e-5
-0.543, 7.936e-5
-0.544, 7.912e-5
-0.545, 7.887e-5
-0.546, 7.860e-5
-0.547, 7.839e-5
-0.548, 7.814e-5
-0.549, 7.790e-5
-0.550, 7.766e-5
-0.551, 7.744e-5
-0.552, 7.720e-5
-0.553, 7.696e-5
-0.554, 7.671e-5
-0.555, 7.650e-5
-0.556, 7.626e-5
-0.557, 7.604e-5
-0.558, 7.580e-5
-0.559, 7.556e-5
-0.560, 7.534e-5
-0.561, 7.510e-5
-0.562, 7.489e-5
-0.563, 7.465e-5
-0.564, 7.443e-5
-0.565, 7.422e-5
-0.566, 7.401e-5
-0.567, 7.376e-5
-0.568, 7.358e-5
-0.569, 7.337e-5
-0.570, 7.312e-5
-0.571, 7.291e-5
-0.572, 7.270e-5
-0.573, 7.249e-5
-0.574, 7.227e-5
-0.575, 7.206e-5
-0.576, 7.185e-5
-0.577, 7.163e-5
-0.578, 7.142e-5
-0.579, 7.121e-5
-0.580, 7.100e-5
-0.581, 7.081e-5
-0.582, 7.057e-5
-0.583, 7.036e-5
-0.584, 7.017e-5
-0.585, 6.996e-5
-0.586, 6.975e-5
-0.587, 6.954e-5
-0.588, 6.932e-5
-0.589, 6.914e-5
-0.590, 6.893e-5
-0.591, 6.871e-5
-0.592, 6.850e-5
-0.593, 6.832e-5
-0.594, 6.814e-5
-0.595, 6.792e-5
-0.596, 6.771e-5
-0.597, 6.753e-5
-0.598, 6.735e-5
-0.599, 6.713e-5
-0.600, 6.695e-5
-0.601, 6.677e-5
-0.602, 6.659e-5
-0.603, 6.637e-5
-0.604, 6.619e-5
-0.605, 6.601e-5
-0.606, 6.583e-5
-0.607, 6.561e-5
-0.608, 6.543e-5
-0.609, 6.525e-5
-0.610, 6.507e-5
-0.611, 6.488e-5
-0.612, 6.470e-5
-0.613, 6.452e-5
-0.614, 6.434e-5
-0.615, 6.415e-5
-0.616, 6.397e-5
-0.617, 6.379e-5
-0.618, 6.364e-5
-0.619, 6.345e-5
-0.620, 6.324e-5
-0.621, 6.306e-5
-0.622, 6.291e-5
-0.623, 6.272e-5
-0.624, 6.251e-5
-0.625, 6.236e-5
-0.626, 6.218e-5
-0.627, 6.199e-5
-0.628, 6.178e-5
-0.629, 6.160e-5
-0.630, 6.145e-5
-0.631, 6.126e-5
-0.632, 6.108e-5
-0.633, 6.090e-5
-0.634, 6.072e-5
-0.635, 6.053e-5
-0.636, 6.035e-5
-0.637, 6.017e-5
-0.638, 5.999e-5
-0.639, 5.980e-5
-0.640, 5.965e-5
-0.641, 5.944e-5
-0.642, 5.926e-5
-0.643, 5.910e-5
-0.644, 5.892e-5
-0.645, 5.874e-5
-0.646, 5.856e-5
-0.647, 5.837e-5
-0.648, 5.819e-5
-0.649, 5.801e-5
-0.650, 5.783e-5
-0.651, 5.767e-5
-0.652, 5.749e-5
-0.653, 5.731e-5
-0.654, 5.713e-5
-0.655, 5.695e-5
-0.656, 5.676e-5
-0.657, 5.658e-5
-0.658, 5.640e-5
-0.659, 5.622e-5
-0.660, 5.603e-5
-0.661, 5.582e-5
-0.662, 5.564e-5
-0.663, 5.545e-5
-0.664, 5.527e-5
-0.665, 5.509e-5
-0.666, 5.488e-5
-0.667, 5.469e-5
-0.668, 5.451e-5
-0.669, 5.430e-5
-0.670, 5.409e-5
-0.671, 5.390e-5
-0.672, 5.372e-5
-0.673, 5.351e-5
-0.674, 5.330e-5
-0.675, 5.311e-5
-0.676, 5.290e-5
-0.677, 5.269e-5
-0.678, 5.247e-5
-0.679, 5.226e-5
-0.680, 5.205e-5
-0.681, 5.184e-5
-0.682, 5.162e-5
-0.683, 5.138e-5
-0.684, 5.117e-5
-0.685, 5.095e-5
-0.686, 5.071e-5
-0.687, 5.047e-5
-0.688, 5.022e-5
-0.689, 5.001e-5
-0.690, 4.974e-5
-0.691, 4.952e-5
-0.692, 4.928e-5
-0.693, 4.901e-5
-0.694, 4.876e-5
-0.695, 4.849e-5
-0.696, 4.822e-5
-0.697, 4.797e-5
-0.698, 4.767e-5
-0.699, 4.740e-5
-0.700, 4.712e-5
-0.701, 4.685e-5
-0.702, 4.654e-5
-0.703, 4.624e-5
-0.704, 4.594e-5
-0.705, 4.563e-5
-0.706, 4.533e-5
-0.707, 4.499e-5
-0.708, 4.469e-5
-0.709, 4.435e-5
-0.710, 4.402e-5
-0.711, 4.365e-5
-0.712, 4.332e-5
-0.713, 4.296e-5
-0.714, 4.256e-5
-0.715, 4.216e-5
-0.716, 4.180e-5
-0.717, 4.137e-5
-0.718, 4.101e-5
-0.719, 4.058e-5
-0.720, 4.016e-5
-0.721, 3.976e-5
-0.722, 3.931e-5
-0.723, 3.885e-5
-0.724, 3.839e-5
-0.725, 3.794e-5
-0.726, 3.748e-5
-0.727, 3.696e-5
-0.728, 3.645e-5
-0.729, 3.596e-5
-0.730, 3.544e-5
-0.731, 3.490e-5
-0.732, 3.432e-5
-0.733, 3.377e-5
-0.734, 3.322e-5
-0.735, 3.258e-5
-0.736, 3.198e-5
-0.737, 3.140e-5
-0.738, 3.076e-5
-0.739, 3.009e-5
-0.740, 2.939e-5
-0.741, 2.872e-5
-0.742, 2.808e-5
-0.743, 2.738e-5
-0.744, 2.656e-5
-0.745, 2.583e-5
-0.746, 2.513e-5
-0.747, 2.431e-5
-0.748, 2.346e-5
-0.749, 2.264e-5
-0.750, 2.188e-5
-0.751, 2.097e-5
-0.752, 2.005e-5
-0.753, 1.917e-5
-0.754, 1.826e-5
-0.755, 1.735e-5
-0.756, 1.631e-5
-0.757, 1.525e-5
-0.758, 1.434e-5
-0.759, 1.333e-5
-0.760, 1.221e-5
-0.761, 1.108e-5
-0.762, 1.005e-5
-0.763, 8.953e-6
-0.764, 7.737e-6
-0.765, 6.551e-6
-0.766, 5.365e-6
-0.767, 4.148e-6
-0.768, 2.780e-6
-0.769, 1.441e-6
-0.770, 1.945e-7
-0.771, -1.083e-6
-0.772, -2.451e-6
-0.773, -3.942e-6
-0.774, -5.310e-6
-0.775, -6.679e-6
-0.776, -8.169e-6
-0.777, -9.720e-6
-0.778, -1.124e-5
-0.779, -1.270e-5
-0.780, -1.425e-5
-0.781, -1.599e-5
-0.782, -1.766e-5
-0.783, -1.924e-5
-0.784, -2.091e-5
-0.785, -2.268e-5
-0.786, -2.453e-5
-0.787, -2.626e-5
-0.788, -2.797e-5
-0.789, -2.988e-5
-0.790, -3.180e-5
-0.791, -3.362e-5
-0.792, -3.548e-5
-0.793, -3.752e-5
-0.794, -3.940e-5
-0.795, -4.138e-5
-0.796, -4.339e-5
-0.797, -4.546e-5
-0.798, -4.765e-5
-0.799, -4.980e-5
-0.800, -5.184e-5
-0.801, -5.400e-5
-0.802, -5.634e-5
-0.803, -5.859e-5
-0.804, -6.078e-5
-0.805, -6.309e-5
-0.806, -6.544e-5
-0.807, -6.793e-5
-0.808, -7.024e-5
-0.809, -7.258e-5
-0.810, -7.511e-5
-0.811, -7.763e-5
-0.812, -8.003e-5
-0.813, -8.247e-5
-0.814, -8.508e-5
-0.815, -8.773e-5
-0.816, -9.025e-5
-0.817, -9.275e-5
-0.818, -9.548e-5
-0.819, -9.804e-5
-0.820, -1.004e-4
-0.821, -1.031e-4
-0.822, -1.059e-4
-0.823, -1.087e-4
-0.824, -1.115e-4
-0.825, -1.142e-4
-0.826, -1.170e-4
-0.827, -1.200e-4
-0.828, -1.229e-4
-0.829, -1.257e-4
-0.830, -1.285e-4
-0.831, -1.315e-4
-0.832, -1.346e-4
-0.833, -1.375e-4
-0.834, -1.405e-4
-0.835, -1.436e-4
-0.836, -1.466e-4
-0.837, -1.496e-4
-0.838, -1.526e-4
-0.839, -1.557e-4
-0.840, -1.590e-4
-0.841, -1.620e-4
-0.842, -1.651e-4
-0.843, -1.683e-4
-0.844, -1.715e-4
-0.845, -1.745e-4
-0.846, -1.775e-4
-0.847, -1.808e-4
-0.848, -1.841e-4
-0.849, -1.873e-4
-0.850, -1.905e-4
-0.851, -1.937e-4
-0.852, -1.971e-4
-0.853, -2.004e-4
-0.854, -2.035e-4
-0.855, -2.069e-4
-0.856, -2.103e-4
-0.857, -2.137e-4
-0.858, -2.169e-4
-0.859, -2.202e-4
-0.860, -2.236e-4
-0.861, -2.270e-4
-0.862, -2.303e-4
-0.863, -2.336e-4
-0.864, -2.371e-4
-0.865, -2.405e-4
-0.866, -2.438e-4
-0.867, -2.472e-4
-0.868, -2.505e-4
-0.869, -2.541e-4
-0.870, -2.575e-4
-0.871, -2.610e-4
-0.872, -2.644e-4
-0.873, -2.679e-4
-0.874, -2.713e-4
-0.875, -2.746e-4
-0.876, -2.779e-4
-0.877, -2.815e-4
-0.878, -2.849e-4
-0.879, -2.882e-4
-0.880, -2.915e-4
-0.881, -2.950e-4
-0.882, -2.985e-4
-0.883, -3.017e-4
-0.884, -3.051e-4
-0.885, -3.085e-4
-0.886, -3.120e-4
-0.887, -3.152e-4
-0.888, -3.185e-4
-0.889, -3.219e-4
-0.890, -3.254e-4
-0.891, -3.287e-4
-0.892, -3.319e-4
-0.893, -3.353e-4
-0.894, -3.386e-4
-0.895, -3.419e-4
-0.896, -3.449e-4
-0.897, -3.481e-4
-0.898, -3.516e-4
-0.899, -3.548e-4
-0.900, -3.579e-4
-0.901, -3.611e-4
-0.902, -3.644e-4
-0.903, -3.676e-4
-0.904, -3.707e-4
-0.905, -3.738e-4
-0.906, -3.770e-4
-0.907, -3.801e-4
-0.908, -3.831e-4
-0.909, -3.861e-4
-0.910, -3.892e-4
-0.911, -3.924e-4
-0.912, -3.953e-4
-0.913, -3.981e-4
-0.914, -4.012e-4
-0.915, -4.041e-4
-0.916, -4.070e-4
-0.917, -4.098e-4
-0.918, -4.126e-4
-0.919, -4.155e-4
-0.920, -4.183e-4
-0.921, -4.208e-4
-0.922, -4.238e-4
-0.923, -4.265e-4
-0.924, -4.292e-4
-0.925, -4.317e-4
-0.926, -4.342e-4
-0.927, -4.369e-4
-0.928, -4.393e-4
-0.929, -4.416e-4
-0.930, -4.440e-4
-0.931, -4.464e-4
-0.932, -4.488e-4
-0.933, -4.510e-4
-0.934, -4.531e-4
-0.935, -4.554e-4
-0.936, -4.577e-4
-0.937, -4.596e-4
-0.938, -4.615e-4
-0.939, -4.635e-4
-0.940, -4.655e-4
-0.941, -4.673e-4
-0.942, -4.690e-4
-0.943, -4.709e-4
-0.944, -4.727e-4
-0.945, -4.742e-4
-0.946, -4.757e-4
-0.947, -4.771e-4
-0.948, -4.785e-4
-0.949, -4.800e-4
-0.950, -4.811e-4
-0.951, -4.823e-4
-0.952, -4.836e-4
-0.953, -4.847e-4
-0.954, -4.857e-4
-0.955, -4.866e-4
-0.956, -4.875e-4
-0.957, -4.884e-4
-0.958, -4.890e-4
-0.959, -4.896e-4
-0.960, -4.903e-4
-0.961, -4.907e-4
-0.962, -4.911e-4
-0.963, -4.913e-4
-0.964, -4.916e-4
-0.965, -4.918e-4
-0.966, -4.918e-4
-0.967, -4.916e-4
-0.968, -4.916e-4
-0.969, -4.914e-4
-0.970, -4.910e-4
-0.971, -4.905e-4
-0.972, -4.901e-4
-0.973, -4.897e-4
-0.974, -4.890e-4
-0.975, -4.881e-4
-0.976, -4.872e-4
-0.977, -4.864e-4
-0.978, -4.853e-4
-0.979, -4.840e-4
-0.980, -4.827e-4
-0.981, -4.814e-4
-0.982, -4.800e-4
-0.983, -4.785e-4
-0.984, -4.768e-4
-0.985, -4.752e-4
-0.986, -4.735e-4
-0.987, -4.716e-4
-0.988, -4.696e-4
-0.989, -4.676e-4
-0.990, -4.656e-4
-0.991, -4.635e-4
-0.992, -4.612e-4
-0.993, -4.590e-4
-0.994, -4.568e-4
-0.995, -4.544e-4
-0.996, -4.519e-4
-0.997, -4.495e-4
-0.998, -4.470e-4
-0.999, -4.444e-4
-1.000, -4.418e-4
-1.001, -4.393e-4
-1.002, -4.368e-4
-1.003, -4.342e-4
-1.004, -4.315e-4
-1.005, -4.289e-4
-1.006, -4.263e-4
-1.007, -4.238e-4
-1.008, -4.211e-4
-1.009, -4.185e-4
-1.010, -4.159e-4
-1.011, -4.134e-4
-1.012, -4.108e-4
-1.013, -4.082e-4
-1.014, -4.057e-4
-1.015, -4.032e-4
-1.016, -4.007e-4
-1.017, -3.982e-4
-1.018, -3.958e-4
-1.019, -3.934e-4
-1.020, -3.910e-4
-1.021, -3.886e-4
-1.022, -3.863e-4
-1.023, -3.841e-4
-1.024, -3.818e-4
-1.025, -3.796e-4
-1.026, -3.774e-4
-1.027, -3.752e-4
-1.028, -3.731e-4
-1.029, -3.710e-4
-1.030, -3.689e-4
-1.031, -3.668e-4
-1.032, -3.649e-4
-1.033, -3.628e-4
-1.034, -3.609e-4
-1.035, -3.590e-4
-1.036, -3.571e-4
-1.037, -3.552e-4
-1.038, -3.533e-4
-1.039, -3.515e-4
-1.040, -3.498e-4
-1.041, -3.480e-4
-1.042, -3.462e-4
-1.043, -3.445e-4
-1.044, -3.429e-4
-1.045, -3.412e-4
-1.046, -3.395e-4
-1.047, -3.379e-4
-1.048, -3.364e-4
-1.049, -3.348e-4
-1.050, -3.332e-4
-1.051, -3.317e-4
-1.052, -3.302e-4
-1.053, -3.288e-4
-1.054, -3.273e-4
-1.055, -3.259e-4
-1.056, -3.245e-4
-1.057, -3.231e-4
-1.058, -3.217e-4
-1.059, -3.203e-4
-1.060, -3.190e-4
-1.061, -3.177e-4
-1.062, -3.164e-4
-1.063, -3.151e-4
-1.064, -3.138e-4
-1.065, -3.126e-4
-1.066, -3.114e-4
-1.067, -3.101e-4
-1.068, -3.089e-4
-1.069, -3.077e-4
-1.070, -3.066e-4
-1.071, -3.054e-4
-1.072, -3.043e-4
-1.073, -3.031e-4
-1.074, -3.020e-4
-1.075, -3.010e-4
-1.076, -2.999e-4
-1.077, -2.988e-4
-1.078, -2.978e-4
-1.079, -2.967e-4
-1.080, -2.957e-4
-1.081, -2.947e-4
-1.082, -2.937e-4
-1.083, -2.927e-4
-1.084, -2.917e-4
-1.085, -2.907e-4
-1.086, -2.897e-4
-1.087, -2.888e-4
-1.088, -2.878e-4
-1.089, -2.869e-4
-1.090, -2.860e-4
-1.091, -2.850e-4
-1.092, -2.842e-4
-1.093, -2.833e-4
-1.094, -2.824e-4
-1.095, -2.815e-4
-1.096, -2.806e-4
-1.097, -2.798e-4
-1.098, -2.789e-4
-1.099, -2.781e-4
-1.100, -2.772e-4
-1.101, -2.764e-4
-1.102, -2.756e-4
-1.103, -2.748e-4
-1.104, -2.740e-4
-1.105, -2.732e-4
-1.106, -2.724e-4
-1.107, -2.716e-4
-1.108, -2.708e-4
-1.109, -2.701e-4
-1.110, -2.693e-4
-1.111, -2.686e-4
-1.112, -2.679e-4
-1.113, -2.671e-4
-1.114, -2.664e-4
-1.115, -2.657e-4
-1.116, -2.650e-4
-1.117, -2.643e-4
-1.118, -2.636e-4
-1.119, -2.629e-4
-1.120, -2.622e-4
-1.121, -2.615e-4
-1.122, -2.608e-4
-1.123, -2.602e-4
-1.124, -2.595e-4
-1.125, -2.589e-4
-1.126, -2.582e-4
-1.127, -2.576e-4
-1.128, -2.570e-4
-1.129, -2.563e-4
-1.130, -2.557e-4
-1.131, -2.551e-4
-1.132, -2.545e-4
-1.133, -2.539e-4
-1.134, -2.533e-4
-1.135, -2.527e-4
-1.136, -2.521e-4
-1.137, -2.515e-4
-1.138, -2.509e-4
-1.139, -2.503e-4
-1.140, -2.497e-4
-1.141, -2.492e-4
-1.142, -2.486e-4
-1.143, -2.480e-4
-1.144, -2.475e-4
-1.145, -2.469e-4
-1.146, -2.464e-4
-1.147, -2.458e-4
-1.148, -2.453e-4
-1.149, -2.448e-4
-1.150, -2.442e-4
-1.151, -2.437e-4
-1.152, -2.432e-4
-1.153, -2.427e-4
-1.154, -2.422e-4
-1.155, -2.416e-4
-1.156, -2.411e-4
-1.157, -2.406e-4
-1.158, -2.402e-4
-1.159, -2.396e-4
-1.160, -2.392e-4
-1.161, -2.387e-4
-1.162, -2.382e-4
-1.163, -2.377e-4
-1.164, -2.372e-4
-1.165, -2.368e-4
-1.166, -2.363e-4
-1.167, -2.358e-4
-1.168, -2.354e-4
-1.169, -2.349e-4
-1.170, -2.344e-4
-1.171, -2.340e-4
-1.172, -2.335e-4
-1.173, -2.331e-4
-1.174, -2.326e-4
-1.175, -2.322e-4
-1.176, -2.317e-4
-1.177, -2.313e-4
-1.178, -2.309e-4
-1.179, -2.305e-4
-1.180, -2.300e-4
-1.181, -2.296e-4
-1.182, -2.292e-4
-1.183, -2.288e-4
-1.184, -2.284e-4
-1.185, -2.280e-4
-1.186, -2.276e-4
-1.187, -2.272e-4
-1.188, -2.268e-4
-1.189, -2.264e-4
-1.190, -2.260e-4
-1.191, -2.256e-4
-1.192, -2.252e-4
-1.193, -2.248e-4
-1.194, -2.244e-4
-1.195, -2.241e-4
-1.196, -2.237e-4
-1.197, -2.233e-4
-1.198, -2.229e-4
-1.199, -2.226e-4
-1.200, -2.221e-4
-1.199, -2.214e-4
-1.198, -2.208e-4
-1.197, -2.203e-4
-1.196, -2.198e-4
-1.195, -2.194e-4
-1.194, -2.189e-4
-1.193, -2.185e-4
-1.192, -2.180e-4
-1.191, -2.176e-4
-1.190, -2.172e-4
-1.189, -2.168e-4
-1.188, -2.164e-4
-1.187, -2.160e-4
-1.186, -2.156e-4
-1.185, -2.152e-4
-1.184, -2.148e-4
-1.183, -2.145e-4
-1.182, -2.141e-4
-1.181, -2.137e-4
-1.180, -2.133e-4
-1.179, -2.130e-4
-1.178, -2.126e-4
-1.177, -2.122e-4
-1.176, -2.119e-4
-1.175, -2.115e-4
-1.174, -2.112e-4
-1.173, -2.108e-4
-1.172, -2.105e-4
-1.171, -2.102e-4
-1.170, -2.098e-4
-1.169, -2.095e-4
-1.168, -2.092e-4
-1.167, -2.089e-4
-1.166, -2.086e-4
-1.165, -2.082e-4
-1.164, -2.079e-4
-1.163, -2.076e-4
-1.162, -2.073e-4
-1.161, -2.070e-4
-1.160, -2.067e-4
-1.159, -2.064e-4
-1.158, -2.061e-4
-1.157, -2.058e-4
-1.156, -2.055e-4
-1.155, -2.052e-4
-1.154, -2.049e-4
-1.153, -2.045e-4
-1.152, -2.043e-4
-1.151, -2.040e-4
-1.150, -2.037e-4
-1.149, -2.034e-4
-1.148, -2.031e-4
-1.147, -2.028e-4
-1.146, -2.025e-4
-1.145, -2.023e-4
-1.144, -2.020e-4
-1.143, -2.017e-4
-1.142, -2.014e-4
-1.141, -2.011e-4
-1.140, -2.009e-4
-1.139, -2.006e-4
-1.138, -2.003e-4
-1.137, -2.000e-4
-1.136, -1.998e-4
-1.135, -1.995e-4
-1.134, -1.993e-4
-1.133, -1.990e-4
-1.132, -1.987e-4
-1.131, -1.984e-4
-1.130, -1.982e-4
-1.129, -1.979e-4
-1.128, -1.976e-4
-1.127, -1.974e-4
-1.126, -1.971e-4
-1.125, -1.969e-4
-1.124, -1.966e-4
-1.123, -1.964e-4
-1.122, -1.961e-4
-1.121, -1.958e-4
-1.120, -1.956e-4
-1.119, -1.953e-4
-1.118, -1.951e-4
-1.117, -1.948e-4
-1.116, -1.946e-4
-1.115, -1.943e-4
-1.114, -1.941e-4
-1.113, -1.938e-4
-1.112, -1.936e-4
-1.111, -1.933e-4
-1.110, -1.931e-4
-1.109, -1.929e-4
-1.108, -1.926e-4
-1.107, -1.923e-4
-1.106, -1.921e-4
-1.105, -1.919e-4
-1.104, -1.917e-4
-1.103, -1.914e-4
-1.102, -1.912e-4
-1.101, -1.910e-4
-1.100, -1.907e-4
-1.099, -1.905e-4
-1.098, -1.903e-4
-1.097, -1.900e-4
-1.096, -1.898e-4
-1.095, -1.896e-4
-1.094, -1.894e-4
-1.093, -1.891e-4
-1.092, -1.889e-4
-1.091, -1.887e-4
-1.090, -1.884e-4
-1.089, -1.882e-4
-1.088, -1.880e-4
-1.087, -1.878e-4
-1.086, -1.875e-4
-1.085, -1.873e-4
-1.084, -1.871e-4
-1.083, -1.868e-4
-1.082, -1.866e-4
-1.081, -1.864e-4
-1.080, -1.861e-4
-1.079, -1.859e-4
-1.078, -1.857e-4
-1.077, -1.854e-4
-1.076, -1.852e-4
-1.075, -1.850e-4
-1.074, -1.847e-4
-1.073, -1.845e-4
-1.072, -1.843e-4
-1.071, -1.840e-4
-1.070, -1.838e-4
-1.069, -1.836e-4
-1.068, -1.833e-4
-1.067, -1.831e-4
-1.066, -1.829e-4
-1.065, -1.826e-4
-1.064, -1.824e-4
-1.063, -1.822e-4
-1.062, -1.819e-4
-1.061, -1.817e-4
-1.060, -1.815e-4
-1.059, -1.812e-4
-1.058, -1.810e-4
-1.057, -1.807e-4
-1.056, -1.805e-4
-1.055, -1.803e-4
-1.054, -1.800e-4
-1.053, -1.798e-4
-1.052, -1.795e-4
-1.051, -1.793e-4
-1.050, -1.791e-4
-1.049, -1.788e-4
-1.048, -1.786e-4
-1.047, -1.783e-4
-1.046, -1.781e-4
-1.045, -1.778e-4
-1.044, -1.776e-4
-1.043, -1.773e-4
-1.042, -1.771e-4
-1.041, -1.768e-4
-1.040, -1.765e-4
-1.039, -1.763e-4
-1.038, -1.760e-4
-1.037, -1.758e-4
-1.036, -1.755e-4
-1.035, -1.752e-4
-1.034, -1.750e-4
-1.033, -1.746e-4
-1.032, -1.744e-4
-1.031, -1.741e-4
-1.030, -1.738e-4
-1.029, -1.735e-4
-1.028, -1.732e-4
-1.027, -1.729e-4
-1.026, -1.726e-4
-1.025, -1.723e-4
-1.024, -1.720e-4
-1.023, -1.716e-4
-1.022, -1.713e-4
-1.021, -1.710e-4
-1.020, -1.707e-4
-1.019, -1.703e-4
-1.018, -1.700e-4
-1.017, -1.696e-4
-1.016, -1.693e-4
-1.015, -1.689e-4
-1.014, -1.686e-4
-1.013, -1.682e-4
-1.012, -1.678e-4
-1.011, -1.674e-4
-1.010, -1.670e-4
-1.009, -1.667e-4
-1.008, -1.662e-4
-1.007, -1.658e-4
-1.006, -1.654e-4
-1.005, -1.650e-4
-1.004, -1.646e-4
-1.003, -1.641e-4
-1.002, -1.637e-4
-1.001, -1.632e-4
-1.000, -1.627e-4
-0.999, -1.622e-4
-0.998, -1.618e-4
-0.997, -1.613e-4
-0.996, -1.608e-4
-0.995, -1.602e-4
-0.994, -1.597e-4
-0.993, -1.592e-4
-0.992, -1.586e-4
-0.991, -1.580e-4
-0.990, -1.575e-4
-0.989, -1.569e-4
-0.988, -1.563e-4
-0.987, -1.556e-4
-0.986, -1.550e-4
-0.985, -1.545e-4
-0.984, -1.537e-4
-0.983, -1.531e-4
-0.982, -1.524e-4
-0.981, -1.517e-4
-0.980, -1.510e-4
-0.979, -1.502e-4
-0.978, -1.494e-4
-0.977, -1.487e-4
-0.976, -1.479e-4
-0.975, -1.471e-4
-0.974, -1.462e-4
-0.973, -1.454e-4
-0.972, -1.444e-4
-0.971, -1.435e-4
-0.970, -1.426e-4
-0.969, -1.417e-4
-0.968, -1.408e-4
-0.967, -1.398e-4
-0.966, -1.387e-4
-0.965, -1.378e-4
-0.964, -1.368e-4
-0.963, -1.357e-4
-0.962, -1.346e-4
-0.961, -1.335e-4
-0.960, -1.324e-4
-0.959, -1.312e-4
-0.958, -1.300e-4
-0.957, -1.288e-4
-0.956, -1.277e-4
-0.955, -1.264e-4
-0.954, -1.251e-4
-0.953, -1.238e-4
-0.952, -1.226e-4
-0.951, -1.212e-4
-0.950, -1.198e-4
-0.949, -1.184e-4
-0.948, -1.170e-4
-0.947, -1.157e-4
-0.946, -1.141e-4
-0.945, -1.126e-4
-0.944, -1.111e-4
-0.943, -1.096e-4
-0.942, -1.080e-4
-0.941, -1.063e-4
-0.940, -1.048e-4
-0.939, -1.031e-4
-0.938, -1.014e-4
-0.937, -9.959e-5
-0.936, -9.789e-5
-0.935, -9.618e-5
-0.934, -9.427e-5
-0.933, -9.238e-5
-0.932, -9.056e-5
-0.931, -8.873e-5
-0.930, -8.679e-5
-0.929, -8.472e-5
-0.928, -8.283e-5
-0.927, -8.092e-5
-0.926, -7.885e-5
-0.925, -7.672e-5
-0.924, -7.462e-5
-0.923, -7.258e-5
-0.922, -7.045e-5
-0.921, -6.805e-5
-0.920, -6.580e-5
-0.919, -6.370e-5
-0.918, -6.148e-5
-0.917, -5.914e-5
-0.916, -5.674e-5
-0.915, -5.452e-5
-0.914, -5.224e-5
-0.913, -4.971e-5
-0.912, -4.725e-5
-0.911, -4.491e-5
-0.910, -4.251e-5
-0.909, -3.995e-5
-0.908, -3.734e-5
-0.907, -3.484e-5
-0.906, -3.238e-5
-0.905, -2.982e-5
-0.904, -2.712e-5
-0.903, -2.447e-5
-0.902, -2.195e-5
-0.901, -1.927e-5
-0.900, -1.644e-5
-0.899, -1.370e-5
-0.898, -1.109e-5
-0.897, -8.291e-6
-0.896, -5.554e-6
-0.895, -2.786e-6
-0.894, 1.200e-8
-0.893, 2.749e-6
-0.892, 5.730e-6
-0.891, 8.710e-6
-0.890, 1.154e-5
-0.889, 1.437e-5
-0.888, 1.741e-5
-0.887, 2.051e-5
-0.886, 2.340e-5
-0.885, 2.626e-5
-0.884, 2.942e-5
-0.883, 3.255e-5
-0.882, 3.553e-5
-0.881, 3.855e-5
-0.880, 4.165e-5
-0.879, 4.481e-5
-0.878, 4.797e-5
-0.877, 5.095e-5
-0.876, 5.403e-5
-0.875, 5.734e-5
-0.874, 6.053e-5
-0.873, 6.361e-5
-0.872, 6.674e-5
-0.871, 7.011e-5
-0.870, 7.355e-5
-0.869, 7.665e-5
-0.868, 7.985e-5
-0.867, 8.316e-5
-0.866, 8.648e-5
-0.865, 8.967e-5
-0.864, 9.280e-5
-0.863, 9.615e-5
-0.862, 9.955e-5
-0.861, 1.028e-4
-0.860, 1.060e-4
-0.859, 1.093e-4
-0.858, 1.127e-4
-0.857, 1.161e-4
-0.856, 1.193e-4
-0.855, 1.226e-4
-0.854, 1.260e-4
-0.853, 1.294e-4
-0.852, 1.326e-4
-0.851, 1.359e-4
-0.850, 1.393e-4
-0.849, 1.427e-4
-0.848, 1.459e-4
-0.847, 1.492e-4
-0.846, 1.527e-4
-0.845, 1.560e-4
-0.844, 1.590e-4
-0.843, 1.624e-4
-0.842, 1.657e-4
-0.841, 1.692e-4
-0.840, 1.724e-4
-0.839, 1.756e-4
-0.838, 1.790e-4
-0.837, 1.824e-4
-0.836, 1.856e-4
-0.835, 1.888e-4
-0.834, 1.921e-4
-0.833, 1.955e-4
-0.832, 1.988e-4
-0.831, 2.019e-4
-0.830, 2.053e-4
-0.829, 2.086e-4
-0.828, 2.117e-4
-0.827, 2.148e-4
-0.826, 2.180e-4
-0.825, 2.213e-4
-0.824, 2.245e-4
-0.823, 2.275e-4
-0.822, 2.307e-4
-0.821, 2.339e-4
-0.820, 2.371e-4
-0.819, 2.397e-4
-0.818, 2.426e-4
-0.817, 2.457e-4
-0.816, 2.489e-4
-0.815, 2.517e-4
-0.814, 2.547e-4
-0.813, 2.577e-4
-0.812, 2.607e-4
-0.811, 2.636e-4
-0.810, 2.665e-4
-0.809, 2.693e-4
-0.808, 2.724e-4
-0.807, 2.751e-4
-0.806, 2.779e-4
-0.805, 2.807e-4
-0.804, 2.835e-4
-0.803, 2.862e-4
-0.802, 2.887e-4
-0.801, 2.915e-4
-0.800, 2.941e-4
-0.799, 2.967e-4
-0.798, 2.991e-4
-0.797, 3.016e-4
-0.796, 3.041e-4
-0.795, 3.066e-4
-0.794, 3.088e-4
-0.793, 3.109e-4
-0.792, 3.133e-4
-0.791, 3.156e-4
-0.790, 3.177e-4
-0.789, 3.198e-4
-0.788, 3.220e-4
-0.787, 3.241e-4
-0.786, 3.260e-4
-0.785, 3.279e-4
-0.784, 3.299e-4
-0.783, 3.318e-4
-0.782, 3.336e-4
-0.781, 3.353e-4
-0.780, 3.370e-4
-0.779, 3.387e-4
-0.778, 3.403e-4
-0.777, 3.416e-4
-0.776, 3.431e-4
-0.775, 3.446e-4
-0.774, 3.458e-4
-0.773, 3.470e-4
-0.772, 3.481e-4
-0.771, 3.494e-4
-0.770, 3.504e-4
-0.769, 3.513e-4
-0.768, 3.522e-4
-0.767, 3.532e-4
-0.766, 3.540e-4
-0.765, 3.545e-4
-0.764, 3.550e-4
-0.763, 3.556e-4
-0.762, 3.561e-4
-0.761, 3.563e-4
-0.760, 3.565e-4
-0.759, 3.566e-4
-0.758, 3.568e-4
-0.757, 3.567e-4
-0.756, 3.565e-4
-0.755, 3.565e-4
-0.754, 3.563e-4
-0.753, 3.559e-4
-0.752, 3.553e-4
-0.751, 3.547e-4
-0.750, 3.542e-4
-0.749, 3.535e-4
-0.748, 3.525e-4
-0.747, 3.516e-4
-0.746, 3.506e-4
-0.745, 3.495e-4
-0.744, 3.483e-4
-0.743, 3.470e-4
-0.742, 3.455e-4
-0.741, 3.441e-4
-0.740, 3.426e-4
-0.739, 3.409e-4
-0.738, 3.393e-4
-0.737, 3.376e-4
-0.736, 3.357e-4
-0.735, 3.337e-4
-0.734, 3.319e-4
-0.733, 3.299e-4
-0.732, 3.278e-4
-0.731, 3.256e-4
-0.730, 3.234e-4
-0.729, 3.212e-4
-0.728, 3.189e-4
-0.727, 3.165e-4
-0.726, 3.141e-4
-0.725, 3.118e-4
-0.724, 3.094e-4
-0.723, 3.069e-4
-0.722, 3.044e-4
-0.721, 3.020e-4
-0.720, 2.995e-4
-0.719, 2.970e-4
-0.718, 2.945e-4
-0.717, 2.920e-4
-0.716, 2.896e-4
-0.715, 2.871e-4
-0.714, 2.846e-4
-0.713, 2.821e-4
-0.712, 2.797e-4
-0.711, 2.772e-4
-0.710, 2.747e-4
-0.709, 2.724e-4
-0.708, 2.700e-4
-0.707, 2.676e-4
-0.706, 2.653e-4
-0.705, 2.630e-4
-0.704, 2.608e-4
-0.703, 2.585e-4
-0.702, 2.563e-4
-0.701, 2.541e-4
-0.700, 2.519e-4
-0.699, 2.499e-4
-0.698, 2.477e-4
-0.697, 2.456e-4
-0.696, 2.436e-4
-0.695, 2.416e-4
-0.694, 2.395e-4
-0.693, 2.376e-4
-0.692, 2.357e-4
-0.691, 2.338e-4
-0.690, 2.319e-4
-0.689, 2.300e-4
-0.688, 2.282e-4
-0.687, 2.265e-4
-0.686, 2.247e-4
-0.685, 2.229e-4
-0.684, 2.212e-4
-0.683, 2.196e-4
-0.682, 2.179e-4
-0.681, 2.163e-4
-0.680, 2.147e-4
-0.679, 2.131e-4
-0.678, 2.116e-4
-0.677, 2.100e-4
-0.676, 2.085e-4
-0.675, 2.070e-4
-0.674, 2.055e-4
-0.673, 2.041e-4
-0.672, 2.026e-4
-0.671, 2.012e-4
-0.670, 1.999e-4
-0.669, 1.985e-4
-0.668, 1.971e-4
-0.667, 1.958e-4
-0.666, 1.945e-4
-0.665, 1.932e-4
-0.664, 1.919e-4
-0.663, 1.907e-4
-0.662, 1.895e-4
-0.661, 1.882e-4
-0.660, 1.870e-4
-0.659, 1.858e-4
-0.658, 1.847e-4
-0.657, 1.835e-4
-0.656, 1.824e-4
-0.655, 1.813e-4
-0.654, 1.801e-4
-0.653, 1.791e-4
-0.652, 1.780e-4
-0.651, 1.769e-4
-0.650, 1.759e-4
-0.649, 1.748e-4
-0.648, 1.738e-4
-0.647, 1.728e-4
-0.646, 1.718e-4
-0.645, 1.708e-4
-0.644, 1.698e-4
-0.643, 1.688e-4
-0.642, 1.679e-4
-0.641, 1.669e-4
-0.640, 1.660e-4
-0.639, 1.650e-4
-0.638, 1.641e-4
-0.637, 1.632e-4
-0.636, 1.623e-4
-0.635, 1.615e-4
-0.634, 1.606e-4
-0.633, 1.597e-4
-0.632, 1.589e-4
-0.631, 1.580e-4
-0.630, 1.572e-4
-0.629, 1.564e-4
-0.628, 1.556e-4
-0.627, 1.548e-4
-0.626, 1.540e-4
-0.625, 1.532e-4
-0.624, 1.524e-4
-0.623, 1.517e-4
-0.622, 1.509e-4
-0.621, 1.502e-4
-0.620, 1.494e-4
-0.619, 1.487e-4
-0.618, 1.479e-4
-0.617, 1.472e-4
-0.616, 1.465e-4
-0.615, 1.458e-4
-0.614, 1.451e-4
-0.613, 1.444e-4
-0.612, 1.437e-4
-0.611, 1.430e-4
-0.610, 1.423e-4
-0.609, 1.416e-4
-0.608, 1.410e-4
-0.607, 1.403e-4
-0.606, 1.397e-4
-0.605, 1.390e-4
-0.604, 1.384e-4
-0.603, 1.378e-4
-0.602, 1.371e-4
-0.601, 1.365e-4
-0.600, 1.359e-4
-0.599, 1.353e-4
-0.598, 1.347e-4
-0.597, 1.341e-4
-0.596, 1.335e-4
-0.595, 1.329e-4
-0.594, 1.323e-4
-0.593, 1.317e-4
-0.592, 1.312e-4
-0.591, 1.306e-4
-0.590, 1.300e-4
-0.589, 1.294e-4
-0.588, 1.289e-4
-0.587, 1.284e-4
-0.586, 1.278e-4
-0.585, 1.273e-4
-0.584, 1.267e-4
-0.583, 1.262e-4
-0.582, 1.257e-4
-0.581, 1.252e-4
-0.580, 1.246e-4
-0.579, 1.241e-4
-0.578, 1.236e-4
-0.577, 1.231e-4
-0.576, 1.226e-4
-0.575, 1.222e-4
-0.574, 1.217e-4
-0.573, 1.212e-4
-0.572, 1.207e-4
-0.571, 1.202e-4
-0.570, 1.197e-4
-0.569, 1.192e-4
-0.568, 1.188e-4
-0.567, 1.183e-4
-0.566, 1.178e-4
-0.565, 1.174e-4
-0.564, 1.169e-4
-0.563, 1.165e-4
-0.562, 1.160e-4
-0.561, 1.156e-4
-0.560, 1.151e-4
-0.559, 1.147e-4
-0.558, 1.142e-4
-0.557, 1.138e-4
-0.556, 1.134e-4
-0.555, 1.129e-4
-0.554, 1.125e-4
-0.553, 1.121e-4
-0.552, 1.117e-4
-0.551, 1.113e-4
-0.550, 1.108e-4
-0.549, 1.104e-4
-0.548, 1.100e-4
-0.547, 1.096e-4
-0.546, 1.092e-4
-0.545, 1.088e-4
-0.544, 1.084e-4
-0.543, 1.080e-4
-0.542, 1.076e-4
-0.541, 1.072e-4
-0.540, 1.069e-4
-0.539, 1.065e-4
-0.538, 1.061e-4
-0.537, 1.057e-4
-0.536, 1.053e-4
-0.535, 1.050e-4
-0.534, 1.046e-4
-0.533, 1.042e-4
-0.532, 1.038e-4
-0.531, 1.035e-4
-0.530, 1.031e-4
-0.529, 1.027e-4
-0.528, 1.024e-4
-0.527, 1.020e-4
-0.526, 1.017e-4
-0.525, 1.013e-4
-0.524, 1.010e-4
-0.523, 1.007e-4
-0.522, 1.003e-4
-0.521, 9.998e-5
-0.520, 9.964e-5
-0.519, 9.931e-5
-0.518, 9.898e-5
-0.517, 9.864e-5
-0.516, 9.831e-5
-0.515, 9.800e-5
-0.514, 9.767e-5
-0.513, 9.733e-5
-0.512, 9.700e-5
-0.511, 9.669e-5
-0.510, 9.639e-5
-0.509, 9.606e-5
-0.508, 9.575e-5
-0.507, 9.545e-5
-0.506, 9.514e-5
-0.505, 9.481e-5
-0.504, 9.450e-5
-0.503, 9.420e-5
-0.502, 9.390e-5
-0.501, 9.359e-5
-0.500, 9.320e-5
-0.501, 9.274e-5
-0.502, 9.238e-5
-0.503, 9.201e-5
-0.504, 9.168e-5
-0.505, 9.134e-5
-0.506, 9.104e-5
-0.507, 9.067e-5
-0.508, 9.037e-5
-0.509, 9.003e-5
-0.510, 8.973e-5
-0.511, 8.943e-5
-0.512, 8.909e-5
-0.513, 8.879e-5
-0.514, 8.851e-5
-0.515, 8.821e-5
-0.516, 8.791e-5
-0.517, 8.760e-5
-0.518, 8.733e-5
-0.519, 8.702e-5
-0.520, 8.672e-5
-0.521, 8.645e-5
-0.522, 8.617e-5
-0.523, 8.590e-5
-0.524, 8.562e-5
-0.525, 8.535e-5
-0.526, 8.508e-5
-0.527, 8.480e-5
-0.528, 8.453e-5
-0.529, 8.426e-5
-0.530, 8.398e-5
-0.531, 8.374e-5
-0.532, 8.347e-5
-0.533, 8.319e-5
-0.534, 8.295e-5
-0.535, 8.270e-5
-0.536, 8.243e-5
-0.537, 8.216e-5
-0.538, 8.188e-5
-0.539, 8.164e-5
-0.540, 8.137e-5
-0.541, 8.109e-5
-0.542, 8.085e-5
-0.543, 8.061e-5
-0.544, 8.036e-5
-0.545, 8.009e-5
-0.546, 7.985e-5
-0.547, 7.960e-5
-0.548, 7.936e-5
-0.549, 7.912e-5
-0.550, 7.887e-5
-0.551, 7.863e-5
-0.552, 7.839e-5
-0.553, 7.814e-5
-0.554, 7.790e-5
-0.555, 7.766e-5
-0.556, 7.744e-5
-0.557, 7.720e-5
-0.558, 7.696e-5
-0.559, 7.671e-5
-0.560, 7.650e-5
-0.561, 7.626e-5
-0.562, 7.601e-5
-0.563, 7.580e-5
-0.564, 7.559e-5
-0.565, 7.534e-5
-0.566, 7.510e-5
-0.567, 7.489e-5
-0.568, 7.468e-5
-0.569, 7.443e-5
-0.570, 7.422e-5
-0.571, 7.401e-5
-0.572, 7.379e-5
-0.573, 7.358e-5
-0.574, 7.334e-5
-0.575, 7.312e-5
-0.576, 7.291e-5
-0.577, 7.273e-5
-0.578, 7.252e-5
-0.579, 7.230e-5
-0.580, 7.209e-5
-0.581, 7.188e-5
-0.582, 7.166e-5
-0.583, 7.145e-5
-0.584, 7.124e-5
-0.585, 7.106e-5
-0.586, 7.084e-5
-0.587, 7.063e-5
-0.588, 7.042e-5
-0.589, 7.024e-5
-0.590, 7.002e-5
-0.591, 6.981e-5
-0.592, 6.960e-5
-0.593, 6.938e-5
-0.594, 6.920e-5
-0.595, 6.899e-5
-0.596, 6.878e-5
-0.597, 6.859e-5
-0.598, 6.838e-5
-0.599, 6.820e-5
-0.600, 6.798e-5
-0.601, 6.780e-5
-0.602, 6.762e-5
-0.603, 6.741e-5
-0.604, 6.722e-5
-0.605, 6.701e-5
-0.606, 6.683e-5
-0.607, 6.665e-5
-0.608, 6.643e-5
-0.609, 6.625e-5
-0.610, 6.607e-5
-0.611, 6.589e-5
-0.612, 6.567e-5
-0.613, 6.549e-5
-0.614, 6.531e-5
-0.615, 6.513e-5
-0.616, 6.491e-5
-0.617, 6.473e-5
-0.618, 6.455e-5
-0.619, 6.437e-5
-0.620, 6.418e-5
-0.621, 6.400e-5
-0.622, 6.382e-5
-0.623, 6.364e-5
-0.624, 6.342e-5
-0.625, 6.324e-5
-0.626, 6.306e-5
-0.627, 6.288e-5
-0.628, 6.269e-5
-0.629, 6.251e-5
-0.630, 6.233e-5
-0.631, 6.215e-5
-0.632, 6.196e-5
-0.633, 6.178e-5
-0.634, 6.160e-5
-0.635, 6.145e-5
-0.636, 6.126e-5
-0.637, 6.108e-5
-0.638, 6.090e-5
-0.639, 6.069e-5
-0.640, 6.053e-5
-0.641, 6.035e-5
-0.642, 6.014e-5
-0.643, 5.999e-5
-0.644, 5.980e-5
-0.645, 5.959e-5
-0.646, 5.941e-5
-0.647, 5.923e-5
-0.648, 5.904e-5
-0.649, 5.886e-5
-0.650, 5.868e-5
-0.651, 5.850e-5
-0.652, 5.831e-5
-0.653, 5.813e-5
-0.654, 5.795e-5
-0.655, 5.777e-5
-0.656, 5.755e-5
-0.657, 5.737e-5
-0.658, 5.719e-5
-0.659, 5.701e-5
-0.660, 5.679e-5
-0.661, 5.661e-5
-0.662, 5.640e-5
-0.663, 5.622e-5
-0.664, 5.600e-5
-0.665, 5.582e-5
-0.666, 5.558e-5
-0.667, 5.539e-5
-0.668, 5.521e-5
-0.669, 5.500e-5
-0.670, 5.479e-5
-0.671, 5.457e-5
-0.672, 5.436e-5
-0.673, 5.415e-5
-0.674, 5.393e-5
-0.675, 5.372e-5
-0.676, 5.354e-5
-0.677, 5.330e-5
-0.678, 5.308e-5
-0.679, 5.287e-5
-0.680, 5.263e-5
-0.681, 5.241e-5
-0.682, 5.217e-5
-0.683, 5.196e-5
-0.684, 5.171e-5
-0.685, 5.150e-5
-0.686, 5.126e-5
-0.687, 5.101e-5
-0.688, 5.077e-5
-0.689, 5.050e-5
-0.690, 5.022e-5
-0.691, 4.998e-5
-0.692, 4.974e-5
-0.693, 4.946e-5
-0.694, 4.916e-5
-0.695, 4.892e-5
-0.696, 4.864e-5
-0.697, 4.834e-5
-0.698, 4.803e-5
-0.699, 4.773e-5
-0.700, 4.746e-5
-0.701, 4.715e-5
-0.702, 4.682e-5
-0.703, 4.651e-5
-0.704, 4.618e-5
-0.705, 4.584e-5
-0.706, 4.551e-5
-0.707, 4.514e-5
-0.708, 4.484e-5
-0.709, 4.448e-5
-0.710, 4.411e-5
-0.711, 4.375e-5
-0.712, 4.335e-5
-0.713, 4.299e-5
-0.714, 4.259e-5
-0.715, 4.216e-5
-0.716, 4.177e-5
-0.717, 4.131e-5
-0.718, 4.089e-5
-0.719, 4.043e-5
-0.720, 4.001e-5
-0.721, 3.955e-5
-0.722, 3.906e-5
-0.723, 3.858e-5
-0.724, 3.809e-5
-0.725, 3.760e-5
-0.726, 3.709e-5
-0.727, 3.654e-5
-0.728, 3.599e-5
-0.729, 3.544e-5
-0.730, 3.490e-5
-0.731, 3.426e-5
-0.732, 3.365e-5
-0.733, 3.307e-5
-0.734, 3.249e-5
-0.735, 3.179e-5
-0.736, 3.112e-5
-0.737, 3.052e-5
-0.738, 2.982e-5
-0.739, 2.912e-5
-0.740, 2.839e-5
-0.741, 2.766e-5
-0.742, 2.693e-5
-0.743, 2.623e-5
-0.744, 2.538e-5
-0.745, 2.456e-5
-0.746, 2.376e-5
-0.747, 2.291e-5
-0.748, 2.200e-5
-0.749, 2.112e-5
-0.750, 2.027e-5
-0.751, 1.935e-5
-0.752, 1.832e-5
-0.753, 1.738e-5
-0.754, 1.640e-5
-0.755, 1.540e-5
-0.756, 1.428e-5
-0.757, 1.321e-5
-0.758, 1.218e-5
-0.759, 1.111e-5
-0.760, 9.927e-6
-0.761, 8.741e-6
-0.762, 7.615e-6
-0.763, 6.460e-6
-0.764, 5.182e-6
-0.765, 3.905e-6
-0.766, 2.658e-6
-0.767, 1.350e-6
-0.768, -7.924e-8
-0.769, -1.539e-6
-0.770, -2.877e-6
-0.771, -4.215e-6
-0.772, -5.675e-6
-0.773, -7.226e-6
-0.774, -8.717e-6
-0.775, -1.015e-5
-0.776, -1.170e-5
-0.777, -1.334e-5
-0.778, -1.498e-5
-0.779, -1.656e-5
-0.780, -1.821e-5
-0.781, -2.000e-5
-0.782, -2.173e-5
-0.783, -2.344e-5
-0.784, -2.517e-5
-0.785, -2.706e-5
-0.786, -2.894e-5
-0.787, -3.074e-5
-0.788, -3.256e-5
-0.789, -3.460e-5
-0.790, -3.657e-5
-0.791, -3.852e-5
-0.792, -4.047e-5
-0.793, -4.254e-5
-0.794, -4.454e-5
-0.795, -4.664e-5
-0.796, -4.871e-5
-0.797, -5.090e-5
-0.798, -5.318e-5
-0.799, -5.540e-5
-0.800, -5.753e-5
-0.801, -5.978e-5
-0.802, -6.224e-5
-0.803, -6.452e-5
-0.804, -6.677e-5
-0.805, -6.918e-5
-0.806, -7.167e-5
-0.807, -7.420e-5
-0.808, -7.657e-5
-0.809, -7.900e-5
-0.810, -8.156e-5
-0.811, -8.417e-5
-0.812, -8.666e-5
-0.813, -8.916e-5
-0.814, -9.184e-5
-0.815, -9.460e-5
-0.816, -9.719e-5
-0.817, -9.977e-5
-0.818, -1.026e-4
-0.819, -1.052e-4
-0.820, -1.076e-4
-0.821, -1.104e-4
-0.822, -1.132e-4
-0.823, -1.161e-4
-0.824, -1.190e-4
-0.825, -1.218e-4
-0.826, -1.247e-4
-0.827, -1.276e-4
-0.828, -1.306e-4
-0.829, -1.335e-4
-0.830, -1.364e-4
-0.831, -1.395e-4
-0.832, -1.427e-4
-0.833, -1.455e-4
-0.834, -1.486e-4
-0.835, -1.518e-4
-0.836, -1.549e-4
-0.837, -1.580e-4
-0.838, -1.609e-4
-0.839, -1.641e-4
-0.840, -1.674e-4
-0.841, -1.705e-4
-0.842, -1.736e-4
-0.843, -1.767e-4
-0.844, -1.801e-4
-0.845, -1.831e-4
-0.846, -1.861e-4
-0.847, -1.895e-4
-0.848, -1.929e-4
-0.849, -1.961e-4
-0.850, -1.993e-4
-0.851, -2.025e-4
-0.852, -2.059e-4
-0.853, -2.093e-4
-0.854, -2.125e-4
-0.855, -2.158e-4
-0.856, -2.193e-4
-0.857, -2.226e-4
-0.858, -2.260e-4
-0.859, -2.292e-4
-0.860, -2.326e-4
-0.861, -2.361e-4
-0.862, -2.394e-4
-0.863, -2.428e-4
-0.864, -2.462e-4
-0.865, -2.496e-4
-0.866, -2.530e-4
-0.867, -2.563e-4
-0.868, -2.597e-4
-0.869, -2.632e-4
-0.870, -2.666e-4
-0.871, -2.701e-4
-0.872, -2.735e-4
-0.873, -2.770e-4
-0.874, -2.805e-4
-0.875, -2.837e-4
-0.876, -2.871e-4
-0.877, -2.906e-4
-0.878, -2.940e-4
-0.879, -2.974e-4
-0.880, -3.007e-4
-0.881, -3.041e-4
-0.882, -3.076e-4
-0.883, -3.109e-4
-0.884, -3.142e-4
-0.885, -3.177e-4
-0.886, -3.211e-4
-0.887, -3.243e-4
-0.888, -3.276e-4
-0.889, -3.309e-4
-0.890, -3.343e-4
-0.891, -3.376e-4
-0.892, -3.408e-4
-0.893, -3.441e-4
-0.894, -3.475e-4
-0.895, -3.507e-4
-0.896, -3.537e-4
-0.897, -3.568e-4
-0.898, -3.602e-4
-0.899, -3.634e-4
-0.900, -3.665e-4
-0.901, -3.696e-4
-0.902, -3.728e-4
-0.903, -3.760e-4
-0.904, -3.790e-4
-0.905, -3.820e-4
-0.906, -3.851e-4
-0.907, -3.882e-4
-0.908, -3.912e-4
-0.909, -3.942e-4
-0.910, -3.972e-4
-0.911, -4.003e-4
-0.912, -4.031e-4
-0.913, -4.058e-4
-0.914, -4.088e-4
-0.915, -4.117e-4
-0.916, -4.144e-4
-0.917, -4.172e-4
-0.918, -4.199e-4
-0.919, -4.226e-4
-0.920, -4.253e-4
-0.921, -4.278e-4
-0.922, -4.306e-4
-0.923, -4.333e-4
-0.924, -4.358e-4
-0.925, -4.382e-4
-0.926, -4.405e-4
-0.927, -4.431e-4
-0.928, -4.454e-4
-0.929, -4.475e-4
-0.930, -4.498e-4
-0.931, -4.521e-4
-0.932, -4.543e-4
-0.933, -4.564e-4
-0.934, -4.583e-4
-0.935, -4.606e-4
-0.936, -4.626e-4
-0.937, -4.644e-4
-0.938, -4.662e-4
-0.939, -4.680e-4
-0.940, -4.699e-4
-0.941, -4.715e-4
-0.942, -4.731e-4
-0.943, -4.746e-4
-0.944, -4.763e-4
-0.945, -4.776e-4
-0.946, -4.789e-4
-0.947, -4.801e-4
-0.948, -4.813e-4
-0.949, -4.825e-4
-0.950, -4.835e-4
-0.951, -4.845e-4
-0.952, -4.855e-4
-0.953, -4.864e-4
-0.954, -4.871e-4
-0.955, -4.878e-4
-0.956, -4.885e-4
-0.957, -4.891e-4
-0.958, -4.894e-4
-0.959, -4.898e-4
-0.960, -4.902e-4
-0.961, -4.905e-4
-0.962, -4.905e-4
-0.963, -4.905e-4
-0.964, -4.905e-4
-0.965, -4.905e-4
-0.966, -4.901e-4
-0.967, -4.897e-4
-0.968, -4.894e-4
-0.969, -4.889e-4
-0.970, -4.882e-4
-0.971, -4.875e-4
-0.972, -4.867e-4
-0.973, -4.861e-4
-0.974, -4.851e-4
-0.975, -4.839e-4
-0.976, -4.827e-4
-0.977, -4.815e-4
-0.978, -4.802e-4
-0.979, -4.787e-4
-0.980, -4.771e-4
-0.981, -4.756e-4
-0.982, -4.739e-4
-0.983, -4.721e-4
-0.984, -4.702e-4
-0.985, -4.684e-4
-0.986, -4.665e-4
-0.987, -4.644e-4
-0.988, -4.622e-4
-0.989, -4.600e-4
-0.990, -4.579e-4
-0.991, -4.555e-4
-0.992, -4.531e-4
-0.993, -4.507e-4
-0.994, -4.484e-4
-0.995, -4.459e-4
-0.996, -4.433e-4
-0.997, -4.408e-4
-0.998, -4.383e-4
-0.999, -4.356e-4
-1.000, -4.330e-4
-1.001, -4.304e-4
-1.002, -4.279e-4
-1.003, -4.253e-4
-1.004, -4.226e-4
-1.005, -4.200e-4
-1.006, -4.174e-4
-1.007, -4.149e-4
-1.008, -4.122e-4
-1.009, -4.096e-4
-1.010, -4.072e-4
-1.011, -4.047e-4
-1.012, -4.021e-4
-1.013, -3.996e-4
-1.014, -3.972e-4
-1.015, -3.947e-4
-1.016, -3.923e-4
-1.017, -3.899e-4
-1.018, -3.876e-4
-1.019, -3.853e-4
-1.020, -3.830e-4
-1.021, -3.807e-4
-1.022, -3.784e-4
-1.023, -3.763e-4
-1.024, -3.741e-4
-1.025, -3.719e-4
-1.026, -3.699e-4
-1.027, -3.678e-4
-1.028, -3.657e-4
-1.029, -3.637e-4
-1.030, -3.617e-4
-1.031, -3.598e-4
-1.032, -3.579e-4
-1.033, -3.560e-4
-1.034, -3.541e-4
-1.035, -3.523e-4
-1.036, -3.505e-4
-1.037, -3.487e-4
-1.038, -3.469e-4
-1.039, -3.452e-4
-1.040, -3.436e-4
-1.041, -3.419e-4
-1.042, -3.402e-4
-1.043, -3.386e-4
-1.044, -3.370e-4
-1.045, -3.354e-4
-1.046, -3.339e-4
-1.047, -3.323e-4
-1.048, -3.308e-4
-1.049, -3.293e-4
-1.050, -3.278e-4
-1.051, -3.264e-4
-1.052, -3.250e-4
-1.053, -3.236e-4
-1.054, -3.222e-4
-1.055, -3.208e-4
-1.056, -3.194e-4
-1.057, -3.181e-4
-1.058, -3.168e-4
-1.059, -3.155e-4
-1.060, -3.142e-4
-1.061, -3.130e-4
-1.062, -3.117e-4
-1.063, -3.105e-4
-1.064, -3.093e-4
-1.065, -3.081e-4
-1.066, -3.069e-4
-1.067, -3.057e-4
-1.068, -3.046e-4
-1.069, -3.034e-4
-1.070, -3.023e-4
-1.071, -3.012e-4
-1.072, -3.001e-4
-1.073, -2.990e-4
-1.074, -2.979e-4
-1.075, -2.969e-4
-1.076, -2.958e-4
-1.077, -2.948e-4
-1.078, -2.938e-4
-1.079, -2.927e-4
-1.080, -2.917e-4
-1.081, -2.907e-4
-1.082, -2.898e-4
-1.083, -2.888e-4
-1.084, -2.878e-4
-1.085, -2.869e-4
-1.086, -2.860e-4
-1.087, -2.851e-4
-1.088, -2.841e-4
-1.089, -2.833e-4
-1.090, -2.823e-4
-1.091, -2.815e-4
-1.092, -2.806e-4
-1.093, -2.798e-4
-1.094, -2.789e-4
-1.095, -2.781e-4
-1.096, -2.772e-4
-1.097, -2.764e-4
-1.098, -2.756e-4
-1.099, -2.748e-4
-1.100, -2.740e-4
-1.101, -2.732e-4
-1.102, -2.724e-4
-1.103, -2.716e-4
-1.104, -2.708e-4
-1.105, -2.701e-4
-1.106, -2.693e-4
-1.107, -2.686e-4
-1.108, -2.678e-4
-1.109, -2.671e-4
-1.110, -2.664e-4
-1.111, -2.656e-4
-1.112, -2.649e-4
-1.113, -2.642e-4
-1.114, -2.635e-4
-1.115, -2.628e-4
-1.116, -2.621e-4
-1.117, -2.615e-4
-1.118, -2.608e-4
-1.119, -2.601e-4
-1.120, -2.594e-4
-1.121, -2.588e-4
-1.122, -2.581e-4
-1.123, -2.575e-4
-1.124, -2.568e-4
-1.125, -2.562e-4
-1.126, -2.555e-4
-1.127, -2.549e-4
-1.128, -2.543e-4
-1.129, -2.537e-4
-1.130, -2.531e-4
-1.131, -2.525e-4
-1.132, -2.519e-4
-1.133, -2.513e-4
-1.134, -2.507e-4
-1.135, -2.501e-4
-1.136, -2.495e-4
-1.137, -2.489e-4
-1.138, -2.484e-4
-1.139, -2.478e-4
-1.140, -2.472e-4
-1.141, -2.467e-4
-1.142, -2.462e-4
-1.143, -2.456e-4
-1.144, -2.451e-4
-1.145, -2.445e-4
-1.146, -2.440e-4
-1.147, -2.435e-4
-1.148, -2.430e-4
-1.149, -2.425e-4
-1.150, -2.420e-4
-1.151, -2.414e-4
-1.152, -2.409e-4
-1.153, -2.404e-4
-1.154, -2.399e-4
-1.155, -2.394e-4
-1.156, -2.389e-4
-1.157, -2.385e-4
-1.158, -2.380e-4
-1.159, -2.375e-4
-1.160, -2.370e-4
-1.161, -2.365e-4
-1.162, -2.361e-4
-1.163, -2.356e-4
-1.164, -2.351e-4
-1.165, -2.347e-4
-1.166, -2.342e-4
-1.167, -2.338e-4
-1.168, -2.333e-4
-1.169, -2.329e-4
-1.170, -2.324e-4
-1.171, -2.320e-4
-1.172, -2.315e-4
-1.173, -2.311e-4
-1.174, -2.307e-4
-1.175, -2.302e-4
-1.176, -2.298e-4
-1.177, -2.294e-4
-1.178, -2.289e-4
-1.179, -2.285e-4
-1.180, -2.281e-4
-1.181, -2.277e-4
-1.182, -2.273e-4
-1.183, -2.269e-4
-1.184, -2.265e-4
-1.185, -2.261e-4
-1.186, -2.257e-4
-1.187, -2.253e-4
-1.188, -2.249e-4
-1.189, -2.245e-4
-1.190, -2.241e-4
-1.191, -2.238e-4
-1.192, -2.234e-4
-1.193, -2.230e-4
-1.194, -2.226e-4
-1.195, -2.223e-4
-1.196, -2.219e-4
-1.197, -2.215e-4
-1.198, -2.212e-4
-1.199, -2.208e-4
