May 10, 2022   10:07:54
Cyclic Voltammetry
File: c:\users\nstumme\onedrive - university of iowa\documents\year 3\220510\nq\300 mv.csv
Data Source:  Experiment
Instrument Model:  CHI660D
Header: 
Note: 

Init E (V) = -1.2
High E (V) = -0.5
Low E (V) = -1.2
Init P/N = P
Scan Rate (V/s) = 0.3
Segment = 6
Sample Interval (V) = 0.001
Quiet Time (sec) = 2
Sensitivity (A/V) = 1e-4

Segment 1:

Segment 2:

Segment 3:

Segment 4:

Segment 5:

Segment 6:

Potential/V, Current/A

-1.200, -1.697e-4
-1.199, -1.694e-4
-1.198, -1.693e-4
-1.197, -1.691e-4
-1.196, -1.689e-4
-1.195, -1.687e-4
-1.194, -1.686e-4
-1.193, -1.685e-4
-1.192, -1.684e-4
-1.191, -1.682e-4
-1.190, -1.681e-4
-1.189, -1.680e-4
-1.188, -1.678e-4
-1.187, -1.677e-4
-1.186, -1.676e-4
-1.185, -1.675e-4
-1.184, -1.674e-4
-1.183, -1.673e-4
-1.182, -1.672e-4
-1.181, -1.670e-4
-1.180, -1.670e-4
-1.179, -1.669e-4
-1.178, -1.668e-4
-1.177, -1.667e-4
-1.176, -1.666e-4
-1.175, -1.664e-4
-1.174, -1.663e-4
-1.173, -1.663e-4
-1.172, -1.662e-4
-1.171, -1.661e-4
-1.170, -1.660e-4
-1.169, -1.659e-4
-1.168, -1.658e-4
-1.167, -1.657e-4
-1.166, -1.656e-4
-1.165, -1.655e-4
-1.164, -1.654e-4
-1.163, -1.653e-4
-1.162, -1.652e-4
-1.161, -1.651e-4
-1.160, -1.650e-4
-1.159, -1.649e-4
-1.158, -1.649e-4
-1.157, -1.648e-4
-1.156, -1.647e-4
-1.155, -1.646e-4
-1.154, -1.645e-4
-1.153, -1.644e-4
-1.152, -1.643e-4
-1.151, -1.642e-4
-1.150, -1.641e-4
-1.149, -1.640e-4
-1.148, -1.639e-4
-1.147, -1.639e-4
-1.146, -1.638e-4
-1.145, -1.637e-4
-1.144, -1.636e-4
-1.143, -1.635e-4
-1.142, -1.634e-4
-1.141, -1.633e-4
-1.140, -1.632e-4
-1.139, -1.632e-4
-1.138, -1.631e-4
-1.137, -1.630e-4
-1.136, -1.629e-4
-1.135, -1.628e-4
-1.134, -1.627e-4
-1.133, -1.626e-4
-1.132, -1.625e-4
-1.131, -1.625e-4
-1.130, -1.624e-4
-1.129, -1.623e-4
-1.128, -1.622e-4
-1.127, -1.621e-4
-1.126, -1.620e-4
-1.125, -1.619e-4
-1.124, -1.619e-4
-1.123, -1.618e-4
-1.122, -1.617e-4
-1.121, -1.616e-4
-1.120, -1.615e-4
-1.119, -1.615e-4
-1.118, -1.614e-4
-1.117, -1.613e-4
-1.116, -1.612e-4
-1.115, -1.611e-4
-1.114, -1.611e-4
-1.113, -1.610e-4
-1.112, -1.609e-4
-1.111, -1.608e-4
-1.110, -1.607e-4
-1.109, -1.606e-4
-1.108, -1.605e-4
-1.107, -1.604e-4
-1.106, -1.604e-4
-1.105, -1.603e-4
-1.104, -1.602e-4
-1.103, -1.601e-4
-1.102, -1.600e-4
-1.101, -1.599e-4
-1.100, -1.598e-4
-1.099, -1.597e-4
-1.098, -1.597e-4
-1.097, -1.596e-4
-1.096, -1.595e-4
-1.095, -1.594e-4
-1.094, -1.593e-4
-1.093, -1.592e-4
-1.092, -1.591e-4
-1.091, -1.590e-4
-1.090, -1.590e-4
-1.089, -1.589e-4
-1.088, -1.588e-4
-1.087, -1.587e-4
-1.086, -1.586e-4
-1.085, -1.585e-4
-1.084, -1.584e-4
-1.083, -1.583e-4
-1.082, -1.583e-4
-1.081, -1.582e-4
-1.080, -1.581e-4
-1.079, -1.580e-4
-1.078, -1.579e-4
-1.077, -1.578e-4
-1.076, -1.577e-4
-1.075, -1.576e-4
-1.074, -1.575e-4
-1.073, -1.574e-4
-1.072, -1.573e-4
-1.071, -1.572e-4
-1.070, -1.571e-4
-1.069, -1.570e-4
-1.068, -1.569e-4
-1.067, -1.568e-4
-1.066, -1.567e-4
-1.065, -1.566e-4
-1.064, -1.565e-4
-1.063, -1.564e-4
-1.062, -1.563e-4
-1.061, -1.562e-4
-1.060, -1.561e-4
-1.059, -1.560e-4
-1.058, -1.559e-4
-1.057, -1.558e-4
-1.056, -1.556e-4
-1.055, -1.556e-4
-1.054, -1.555e-4
-1.053, -1.554e-4
-1.052, -1.552e-4
-1.051, -1.551e-4
-1.050, -1.550e-4
-1.049, -1.549e-4
-1.048, -1.548e-4
-1.047, -1.547e-4
-1.046, -1.545e-4
-1.045, -1.544e-4
-1.044, -1.543e-4
-1.043, -1.542e-4
-1.042, -1.541e-4
-1.041, -1.539e-4
-1.040, -1.538e-4
-1.039, -1.537e-4
-1.038, -1.535e-4
-1.037, -1.534e-4
-1.036, -1.532e-4
-1.035, -1.531e-4
-1.034, -1.530e-4
-1.033, -1.528e-4
-1.032, -1.527e-4
-1.031, -1.525e-4
-1.030, -1.524e-4
-1.029, -1.522e-4
-1.028, -1.521e-4
-1.027, -1.519e-4
-1.026, -1.517e-4
-1.025, -1.516e-4
-1.024, -1.514e-4
-1.023, -1.513e-4
-1.022, -1.511e-4
-1.021, -1.509e-4
-1.020, -1.507e-4
-1.019, -1.506e-4
-1.018, -1.504e-4
-1.017, -1.502e-4
-1.016, -1.500e-4
-1.015, -1.498e-4
-1.014, -1.496e-4
-1.013, -1.494e-4
-1.012, -1.492e-4
-1.011, -1.490e-4
-1.010, -1.488e-4
-1.009, -1.485e-4
-1.008, -1.483e-4
-1.007, -1.481e-4
-1.006, -1.478e-4
-1.005, -1.476e-4
-1.004, -1.473e-4
-1.003, -1.471e-4
-1.002, -1.468e-4
-1.001, -1.465e-4
-1.000, -1.463e-4
-0.999, -1.460e-4
-0.998, -1.457e-4
-0.997, -1.454e-4
-0.996, -1.451e-4
-0.995, -1.448e-4
-0.994, -1.445e-4
-0.993, -1.442e-4
-0.992, -1.438e-4
-0.991, -1.435e-4
-0.990, -1.431e-4
-0.989, -1.428e-4
-0.988, -1.424e-4
-0.987, -1.420e-4
-0.986, -1.416e-4
-0.985, -1.413e-4
-0.984, -1.408e-4
-0.983, -1.404e-4
-0.982, -1.400e-4
-0.981, -1.395e-4
-0.980, -1.391e-4
-0.979, -1.386e-4
-0.978, -1.382e-4
-0.977, -1.376e-4
-0.976, -1.372e-4
-0.975, -1.367e-4
-0.974, -1.361e-4
-0.973, -1.355e-4
-0.972, -1.349e-4
-0.971, -1.344e-4
-0.970, -1.338e-4
-0.969, -1.333e-4
-0.968, -1.326e-4
-0.967, -1.319e-4
-0.966, -1.313e-4
-0.965, -1.306e-4
-0.964, -1.300e-4
-0.963, -1.292e-4
-0.962, -1.285e-4
-0.961, -1.278e-4
-0.960, -1.270e-4
-0.959, -1.263e-4
-0.958, -1.254e-4
-0.957, -1.246e-4
-0.956, -1.237e-4
-0.955, -1.229e-4
-0.954, -1.220e-4
-0.953, -1.211e-4
-0.952, -1.201e-4
-0.951, -1.191e-4
-0.950, -1.183e-4
-0.949, -1.173e-4
-0.948, -1.162e-4
-0.947, -1.152e-4
-0.946, -1.141e-4
-0.945, -1.130e-4
-0.944, -1.119e-4
-0.943, -1.108e-4
-0.942, -1.095e-4
-0.941, -1.083e-4
-0.940, -1.072e-4
-0.939, -1.059e-4
-0.938, -1.046e-4
-0.937, -1.032e-4
-0.936, -1.019e-4
-0.935, -1.006e-4
-0.934, -9.926e-5
-0.933, -9.777e-5
-0.932, -9.624e-5
-0.931, -9.479e-5
-0.930, -9.336e-5
-0.929, -9.187e-5
-0.928, -9.028e-5
-0.927, -8.867e-5
-0.926, -8.703e-5
-0.925, -8.545e-5
-0.924, -8.384e-5
-0.923, -8.210e-5
-0.922, -8.028e-5
-0.921, -7.842e-5
-0.920, -7.669e-5
-0.919, -7.496e-5
-0.918, -7.304e-5
-0.917, -7.115e-5
-0.916, -6.918e-5
-0.915, -6.741e-5
-0.914, -6.553e-5
-0.913, -6.346e-5
-0.912, -6.139e-5
-0.911, -5.935e-5
-0.910, -5.732e-5
-0.909, -5.525e-5
-0.908, -5.303e-5
-0.907, -5.081e-5
-0.906, -4.859e-5
-0.905, -4.646e-5
-0.904, -4.427e-5
-0.903, -4.190e-5
-0.902, -3.959e-5
-0.901, -3.721e-5
-0.900, -3.493e-5
-0.899, -3.262e-5
-0.898, -3.019e-5
-0.897, -2.760e-5
-0.896, -2.526e-5
-0.895, -2.298e-5
-0.894, -2.043e-5
-0.893, -1.784e-5
-0.892, -1.516e-5
-0.891, -1.258e-5
-0.890, -1.002e-5
-0.889, -7.470e-6
-0.888, -4.702e-6
-0.887, -1.904e-6
-0.886, 8.331e-7
-0.885, 3.449e-6
-0.884, 6.186e-6
-0.883, 9.105e-6
-0.882, 1.203e-5
-0.881, 1.491e-5
-0.880, 1.765e-5
-0.879, 2.051e-5
-0.878, 2.352e-5
-0.877, 2.653e-5
-0.876, 2.942e-5
-0.875, 3.234e-5
-0.874, 3.526e-5
-0.873, 3.833e-5
-0.872, 4.137e-5
-0.871, 4.445e-5
-0.870, 4.761e-5
-0.869, 5.065e-5
-0.868, 5.381e-5
-0.867, 5.701e-5
-0.866, 6.011e-5
-0.865, 6.324e-5
-0.864, 6.628e-5
-0.863, 6.944e-5
-0.862, 7.279e-5
-0.861, 7.601e-5
-0.860, 7.909e-5
-0.859, 8.225e-5
-0.858, 8.556e-5
-0.857, 8.900e-5
-0.856, 9.228e-5
-0.855, 9.542e-5
-0.854, 9.867e-5
-0.853, 1.020e-4
-0.852, 1.055e-4
-0.851, 1.088e-4
-0.850, 1.120e-4
-0.849, 1.153e-4
-0.848, 1.187e-4
-0.847, 1.222e-4
-0.846, 1.256e-4
-0.845, 1.288e-4
-0.844, 1.319e-4
-0.843, 1.354e-4
-0.842, 1.389e-4
-0.841, 1.423e-4
-0.840, 1.457e-4
-0.839, 1.490e-4
-0.838, 1.524e-4
-0.837, 1.559e-4
-0.836, 1.595e-4
-0.835, 1.628e-4
-0.834, 1.660e-4
-0.833, 1.696e-4
-0.832, 1.732e-4
-0.831, 1.767e-4
-0.830, 1.800e-4
-0.829, 1.833e-4
-0.828, 1.869e-4
-0.827, 1.905e-4
-0.826, 1.939e-4
-0.825, 1.972e-4
-0.824, 2.006e-4
-0.823, 2.040e-4
-0.822, 2.075e-4
-0.821, 2.110e-4
-0.820, 2.143e-4
-0.819, 2.173e-4
-0.818, 2.206e-4
-0.817, 2.241e-4
-0.816, 2.275e-4
-0.815, 2.308e-4
-0.814, 2.341e-4
-0.813, 2.375e-4
-0.812, 2.410e-4
-0.811, 2.444e-4
-0.810, 2.476e-4
-0.809, 2.509e-4
-0.808, 2.543e-4
-0.807, 2.577e-4
-0.806, 2.610e-4
-0.805, 2.642e-4
-0.804, 2.674e-4
-0.803, 2.707e-4
-0.802, 2.740e-4
-0.801, 2.773e-4
-0.800, 2.804e-4
-0.799, 2.834e-4
-0.798, 2.867e-4
-0.797, 2.899e-4
-0.796, 2.930e-4
-0.795, 2.960e-4
-0.794, 2.989e-4
-0.793, 3.019e-4
-0.792, 3.051e-4
-0.791, 3.081e-4
-0.790, 3.109e-4
-0.789, 3.138e-4
-0.788, 3.169e-4
-0.787, 3.198e-4
-0.786, 3.226e-4
-0.785, 3.254e-4
-0.784, 3.281e-4
-0.783, 3.309e-4
-0.782, 3.338e-4
-0.781, 3.365e-4
-0.780, 3.391e-4
-0.779, 3.417e-4
-0.778, 3.444e-4
-0.777, 3.471e-4
-0.776, 3.495e-4
-0.775, 3.519e-4
-0.774, 3.542e-4
-0.773, 3.567e-4
-0.772, 3.592e-4
-0.771, 3.615e-4
-0.770, 3.636e-4
-0.769, 3.658e-4
-0.768, 3.682e-4
-0.767, 3.705e-4
-0.766, 3.727e-4
-0.765, 3.745e-4
-0.764, 3.764e-4
-0.763, 3.784e-4
-0.762, 3.804e-4
-0.761, 3.822e-4
-0.760, 3.838e-4
-0.759, 3.855e-4
-0.758, 3.872e-4
-0.757, 3.888e-4
-0.756, 3.904e-4
-0.755, 3.917e-4
-0.754, 3.930e-4
-0.753, 3.944e-4
-0.752, 3.957e-4
-0.751, 3.969e-4
-0.750, 3.979e-4
-0.749, 3.988e-4
-0.748, 3.998e-4
-0.747, 4.008e-4
-0.746, 4.016e-4
-0.745, 4.022e-4
-0.744, 4.028e-4
-0.743, 4.034e-4
-0.742, 4.038e-4
-0.741, 4.041e-4
-0.740, 4.044e-4
-0.739, 4.044e-4
-0.738, 4.047e-4
-0.737, 4.048e-4
-0.736, 4.047e-4
-0.735, 4.045e-4
-0.734, 4.042e-4
-0.733, 4.039e-4
-0.732, 4.036e-4
-0.731, 4.030e-4
-0.730, 4.023e-4
-0.729, 4.016e-4
-0.728, 4.009e-4
-0.727, 4.001e-4
-0.726, 3.991e-4
-0.725, 3.979e-4
-0.724, 3.966e-4
-0.723, 3.953e-4
-0.722, 3.940e-4
-0.721, 3.926e-4
-0.720, 3.910e-4
-0.719, 3.893e-4
-0.718, 3.876e-4
-0.717, 3.859e-4
-0.716, 3.841e-4
-0.715, 3.821e-4
-0.714, 3.799e-4
-0.713, 3.778e-4
-0.712, 3.757e-4
-0.711, 3.735e-4
-0.710, 3.710e-4
-0.709, 3.686e-4
-0.708, 3.662e-4
-0.707, 3.638e-4
-0.706, 3.613e-4
-0.705, 3.587e-4
-0.704, 3.560e-4
-0.703, 3.535e-4
-0.702, 3.509e-4
-0.701, 3.482e-4
-0.700, 3.454e-4
-0.699, 3.427e-4
-0.698, 3.401e-4
-0.697, 3.374e-4
-0.696, 3.346e-4
-0.695, 3.319e-4
-0.694, 3.292e-4
-0.693, 3.265e-4
-0.692, 3.239e-4
-0.691, 3.211e-4
-0.690, 3.184e-4
-0.689, 3.158e-4
-0.688, 3.132e-4
-0.687, 3.107e-4
-0.686, 3.081e-4
-0.685, 3.055e-4
-0.684, 3.030e-4
-0.683, 3.006e-4
-0.682, 2.982e-4
-0.681, 2.957e-4
-0.680, 2.933e-4
-0.679, 2.909e-4
-0.678, 2.887e-4
-0.677, 2.864e-4
-0.676, 2.841e-4
-0.675, 2.818e-4
-0.674, 2.796e-4
-0.673, 2.775e-4
-0.672, 2.754e-4
-0.671, 2.733e-4
-0.670, 2.712e-4
-0.669, 2.691e-4
-0.668, 2.671e-4
-0.667, 2.652e-4
-0.666, 2.632e-4
-0.665, 2.613e-4
-0.664, 2.594e-4
-0.663, 2.575e-4
-0.662, 2.557e-4
-0.661, 2.539e-4
-0.660, 2.521e-4
-0.659, 2.503e-4
-0.658, 2.486e-4
-0.657, 2.469e-4
-0.656, 2.452e-4
-0.655, 2.436e-4
-0.654, 2.419e-4
-0.653, 2.403e-4
-0.652, 2.388e-4
-0.651, 2.372e-4
-0.650, 2.357e-4
-0.649, 2.341e-4
-0.648, 2.326e-4
-0.647, 2.312e-4
-0.646, 2.297e-4
-0.645, 2.283e-4
-0.644, 2.268e-4
-0.643, 2.255e-4
-0.642, 2.241e-4
-0.641, 2.227e-4
-0.640, 2.214e-4
-0.639, 2.200e-4
-0.638, 2.188e-4
-0.637, 2.175e-4
-0.636, 2.162e-4
-0.635, 2.150e-4
-0.634, 2.138e-4
-0.633, 2.125e-4
-0.632, 2.114e-4
-0.631, 2.102e-4
-0.630, 2.090e-4
-0.629, 2.078e-4
-0.628, 2.067e-4
-0.627, 2.055e-4
-0.626, 2.044e-4
-0.625, 2.033e-4
-0.624, 2.022e-4
-0.623, 2.011e-4
-0.622, 2.001e-4
-0.621, 1.990e-4
-0.620, 1.980e-4
-0.619, 1.970e-4
-0.618, 1.959e-4
-0.617, 1.949e-4
-0.616, 1.939e-4
-0.615, 1.930e-4
-0.614, 1.920e-4
-0.613, 1.910e-4
-0.612, 1.901e-4
-0.611, 1.891e-4
-0.610, 1.882e-4
-0.609, 1.873e-4
-0.608, 1.864e-4
-0.607, 1.854e-4
-0.606, 1.846e-4
-0.605, 1.837e-4
-0.604, 1.828e-4
-0.603, 1.819e-4
-0.602, 1.811e-4
-0.601, 1.803e-4
-0.600, 1.794e-4
-0.599, 1.786e-4
-0.598, 1.778e-4
-0.597, 1.770e-4
-0.596, 1.762e-4
-0.595, 1.754e-4
-0.594, 1.746e-4
-0.593, 1.738e-4
-0.592, 1.730e-4
-0.591, 1.723e-4
-0.590, 1.715e-4
-0.589, 1.708e-4
-0.588, 1.700e-4
-0.587, 1.693e-4
-0.586, 1.685e-4
-0.585, 1.678e-4
-0.584, 1.671e-4
-0.583, 1.664e-4
-0.582, 1.656e-4
-0.581, 1.649e-4
-0.580, 1.643e-4
-0.579, 1.636e-4
-0.578, 1.629e-4
-0.577, 1.622e-4
-0.576, 1.615e-4
-0.575, 1.609e-4
-0.574, 1.602e-4
-0.573, 1.596e-4
-0.572, 1.589e-4
-0.571, 1.583e-4
-0.570, 1.576e-4
-0.569, 1.570e-4
-0.568, 1.564e-4
-0.567, 1.558e-4
-0.566, 1.551e-4
-0.565, 1.545e-4
-0.564, 1.539e-4
-0.563, 1.534e-4
-0.562, 1.527e-4
-0.561, 1.522e-4
-0.560, 1.516e-4
-0.559, 1.510e-4
-0.558, 1.504e-4
-0.557, 1.498e-4
-0.556, 1.493e-4
-0.555, 1.487e-4
-0.554, 1.482e-4
-0.553, 1.476e-4
-0.552, 1.470e-4
-0.551, 1.465e-4
-0.550, 1.460e-4
-0.549, 1.454e-4
-0.548, 1.449e-4
-0.547, 1.444e-4
-0.546, 1.438e-4
-0.545, 1.433e-4
-0.544, 1.428e-4
-0.543, 1.423e-4
-0.542, 1.417e-4
-0.541, 1.412e-4
-0.540, 1.407e-4
-0.539, 1.402e-4
-0.538, 1.397e-4
-0.537, 1.392e-4
-0.536, 1.388e-4
-0.535, 1.383e-4
-0.534, 1.378e-4
-0.533, 1.373e-4
-0.532, 1.368e-4
-0.531, 1.364e-4
-0.530, 1.359e-4
-0.529, 1.354e-4
-0.528, 1.349e-4
-0.527, 1.345e-4
-0.526, 1.340e-4
-0.525, 1.336e-4
-0.524, 1.331e-4
-0.523, 1.326e-4
-0.522, 1.322e-4
-0.521, 1.318e-4
-0.520, 1.313e-4
-0.519, 1.309e-4
-0.518, 1.304e-4
-0.517, 1.300e-4
-0.516, 1.296e-4
-0.515, 1.291e-4
-0.514, 1.287e-4
-0.513, 1.283e-4
-0.512, 1.279e-4
-0.511, 1.274e-4
-0.510, 1.270e-4
-0.509, 1.266e-4
-0.508, 1.262e-4
-0.507, 1.258e-4
-0.506, 1.254e-4
-0.505, 1.250e-4
-0.504, 1.246e-4
-0.503, 1.242e-4
-0.502, 1.238e-4
-0.501, 1.234e-4
-0.500, 1.230e-4
-0.501, 1.224e-4
-0.502, 1.219e-4
-0.503, 1.215e-4
-0.504, 1.210e-4
-0.505, 1.206e-4
-0.506, 1.201e-4
-0.507, 1.197e-4
-0.508, 1.193e-4
-0.509, 1.189e-4
-0.510, 1.185e-4
-0.511, 1.181e-4
-0.512, 1.177e-4
-0.513, 1.173e-4
-0.514, 1.169e-4
-0.515, 1.166e-4
-0.516, 1.162e-4
-0.517, 1.158e-4
-0.518, 1.154e-4
-0.519, 1.151e-4
-0.520, 1.147e-4
-0.521, 1.143e-4
-0.522, 1.139e-4
-0.523, 1.136e-4
-0.524, 1.132e-4
-0.525, 1.129e-4
-0.526, 1.125e-4
-0.527, 1.121e-4
-0.528, 1.118e-4
-0.529, 1.115e-4
-0.530, 1.111e-4
-0.531, 1.108e-4
-0.532, 1.104e-4
-0.533, 1.101e-4
-0.534, 1.097e-4
-0.535, 1.094e-4
-0.536, 1.091e-4
-0.537, 1.087e-4
-0.538, 1.084e-4
-0.539, 1.081e-4
-0.540, 1.077e-4
-0.541, 1.074e-4
-0.542, 1.071e-4
-0.543, 1.068e-4
-0.544, 1.064e-4
-0.545, 1.061e-4
-0.546, 1.058e-4
-0.547, 1.055e-4
-0.548, 1.051e-4
-0.549, 1.048e-4
-0.550, 1.045e-4
-0.551, 1.042e-4
-0.552, 1.039e-4
-0.553, 1.036e-4
-0.554, 1.033e-4
-0.555, 1.030e-4
-0.556, 1.027e-4
-0.557, 1.024e-4
-0.558, 1.021e-4
-0.559, 1.018e-4
-0.560, 1.015e-4
-0.561, 1.012e-4
-0.562, 1.009e-4
-0.563, 1.006e-4
-0.564, 1.003e-4
-0.565, 1.000e-4
-0.566, 9.974e-5
-0.567, 9.943e-5
-0.568, 9.916e-5
-0.569, 9.885e-5
-0.570, 9.858e-5
-0.571, 9.831e-5
-0.572, 9.800e-5
-0.573, 9.773e-5
-0.574, 9.746e-5
-0.575, 9.718e-5
-0.576, 9.688e-5
-0.577, 9.660e-5
-0.578, 9.633e-5
-0.579, 9.609e-5
-0.580, 9.581e-5
-0.581, 9.551e-5
-0.582, 9.527e-5
-0.583, 9.499e-5
-0.584, 9.472e-5
-0.585, 9.447e-5
-0.586, 9.420e-5
-0.587, 9.393e-5
-0.588, 9.365e-5
-0.589, 9.341e-5
-0.590, 9.317e-5
-0.591, 9.289e-5
-0.592, 9.262e-5
-0.593, 9.235e-5
-0.594, 9.213e-5
-0.595, 9.186e-5
-0.596, 9.162e-5
-0.597, 9.134e-5
-0.598, 9.110e-5
-0.599, 9.083e-5
-0.600, 9.058e-5
-0.601, 9.031e-5
-0.602, 9.006e-5
-0.603, 8.979e-5
-0.604, 8.955e-5
-0.605, 8.930e-5
-0.606, 8.906e-5
-0.607, 8.879e-5
-0.608, 8.854e-5
-0.609, 8.830e-5
-0.610, 8.803e-5
-0.611, 8.778e-5
-0.612, 8.754e-5
-0.613, 8.730e-5
-0.614, 8.705e-5
-0.615, 8.678e-5
-0.616, 8.654e-5
-0.617, 8.629e-5
-0.618, 8.605e-5
-0.619, 8.581e-5
-0.620, 8.556e-5
-0.621, 8.532e-5
-0.622, 8.508e-5
-0.623, 8.483e-5
-0.624, 8.459e-5
-0.625, 8.435e-5
-0.626, 8.410e-5
-0.627, 8.386e-5
-0.628, 8.362e-5
-0.629, 8.340e-5
-0.630, 8.313e-5
-0.631, 8.292e-5
-0.632, 8.264e-5
-0.633, 8.240e-5
-0.634, 8.216e-5
-0.635, 8.191e-5
-0.636, 8.167e-5
-0.637, 8.143e-5
-0.638, 8.118e-5
-0.639, 8.094e-5
-0.640, 8.070e-5
-0.641, 8.042e-5
-0.642, 8.018e-5
-0.643, 7.994e-5
-0.644, 7.969e-5
-0.645, 7.945e-5
-0.646, 7.918e-5
-0.647, 7.893e-5
-0.648, 7.869e-5
-0.649, 7.842e-5
-0.650, 7.817e-5
-0.651, 7.790e-5
-0.652, 7.766e-5
-0.653, 7.738e-5
-0.654, 7.714e-5
-0.655, 7.687e-5
-0.656, 7.659e-5
-0.657, 7.635e-5
-0.658, 7.607e-5
-0.659, 7.580e-5
-0.660, 7.553e-5
-0.661, 7.525e-5
-0.662, 7.495e-5
-0.663, 7.471e-5
-0.664, 7.440e-5
-0.665, 7.413e-5
-0.666, 7.379e-5
-0.667, 7.352e-5
-0.668, 7.322e-5
-0.669, 7.294e-5
-0.670, 7.264e-5
-0.671, 7.230e-5
-0.672, 7.203e-5
-0.673, 7.173e-5
-0.674, 7.139e-5
-0.675, 7.109e-5
-0.676, 7.075e-5
-0.677, 7.042e-5
-0.678, 7.011e-5
-0.679, 6.978e-5
-0.680, 6.941e-5
-0.681, 6.905e-5
-0.682, 6.871e-5
-0.683, 6.838e-5
-0.684, 6.802e-5
-0.685, 6.765e-5
-0.686, 6.726e-5
-0.687, 6.689e-5
-0.688, 6.649e-5
-0.689, 6.613e-5
-0.690, 6.567e-5
-0.691, 6.531e-5
-0.692, 6.491e-5
-0.693, 6.449e-5
-0.694, 6.406e-5
-0.695, 6.361e-5
-0.696, 6.315e-5
-0.697, 6.269e-5
-0.698, 6.227e-5
-0.699, 6.181e-5
-0.700, 6.129e-5
-0.701, 6.081e-5
-0.702, 6.032e-5
-0.703, 5.983e-5
-0.704, 5.932e-5
-0.705, 5.877e-5
-0.706, 5.819e-5
-0.707, 5.767e-5
-0.708, 5.713e-5
-0.709, 5.658e-5
-0.710, 5.594e-5
-0.711, 5.533e-5
-0.712, 5.476e-5
-0.713, 5.415e-5
-0.714, 5.351e-5
-0.715, 5.284e-5
-0.716, 5.217e-5
-0.717, 5.144e-5
-0.718, 5.080e-5
-0.719, 5.007e-5
-0.720, 4.934e-5
-0.721, 4.858e-5
-0.722, 4.785e-5
-0.723, 4.709e-5
-0.724, 4.633e-5
-0.725, 4.545e-5
-0.726, 4.460e-5
-0.727, 4.381e-5
-0.728, 4.299e-5
-0.729, 4.207e-5
-0.730, 4.110e-5
-0.731, 4.016e-5
-0.732, 3.924e-5
-0.733, 3.830e-5
-0.734, 3.736e-5
-0.735, 3.626e-5
-0.736, 3.523e-5
-0.737, 3.423e-5
-0.738, 3.316e-5
-0.739, 3.207e-5
-0.740, 3.091e-5
-0.741, 2.970e-5
-0.742, 2.860e-5
-0.743, 2.754e-5
-0.744, 2.629e-5
-0.745, 2.501e-5
-0.746, 2.370e-5
-0.747, 2.246e-5
-0.748, 2.115e-5
-0.749, 1.984e-5
-0.750, 1.838e-5
-0.751, 1.695e-5
-0.752, 1.558e-5
-0.753, 1.421e-5
-0.754, 1.269e-5
-0.755, 1.111e-5
-0.756, 9.562e-6
-0.757, 8.011e-6
-0.758, 6.520e-6
-0.759, 4.878e-6
-0.760, 3.205e-6
-0.761, 1.502e-6
-0.762, -1.705e-7
-0.763, -1.782e-6
-0.764, -3.577e-6
-0.765, -5.462e-6
-0.766, -7.257e-6
-0.767, -9.081e-6
-0.768, -1.100e-5
-0.769, -1.294e-5
-0.770, -1.498e-5
-0.771, -1.693e-5
-0.772, -1.884e-5
-0.773, -2.079e-5
-0.774, -2.283e-5
-0.775, -2.496e-5
-0.776, -2.715e-5
-0.777, -2.921e-5
-0.778, -3.128e-5
-0.779, -3.344e-5
-0.780, -3.575e-5
-0.781, -3.810e-5
-0.782, -4.032e-5
-0.783, -4.254e-5
-0.784, -4.488e-5
-0.785, -4.728e-5
-0.786, -4.977e-5
-0.787, -5.212e-5
-0.788, -5.443e-5
-0.789, -5.695e-5
-0.790, -5.951e-5
-0.791, -6.212e-5
-0.792, -6.455e-5
-0.793, -6.708e-5
-0.794, -6.948e-5
-0.795, -7.222e-5
-0.796, -7.499e-5
-0.797, -7.760e-5
-0.798, -8.022e-5
-0.799, -8.302e-5
-0.800, -8.581e-5
-0.801, -8.861e-5
-0.802, -9.141e-5
-0.803, -9.412e-5
-0.804, -9.697e-5
-0.805, -9.999e-5
-0.806, -1.029e-4
-0.807, -1.058e-4
-0.808, -1.087e-4
-0.809, -1.116e-4
-0.810, -1.147e-4
-0.811, -1.177e-4
-0.812, -1.207e-4
-0.813, -1.237e-4
-0.814, -1.267e-4
-0.815, -1.299e-4
-0.816, -1.331e-4
-0.817, -1.361e-4
-0.818, -1.392e-4
-0.819, -1.422e-4
-0.820, -1.451e-4
-0.821, -1.484e-4
-0.822, -1.516e-4
-0.823, -1.547e-4
-0.824, -1.579e-4
-0.825, -1.613e-4
-0.826, -1.647e-4
-0.827, -1.679e-4
-0.828, -1.712e-4
-0.829, -1.745e-4
-0.830, -1.779e-4
-0.831, -1.813e-4
-0.832, -1.847e-4
-0.833, -1.879e-4
-0.834, -1.913e-4
-0.835, -1.948e-4
-0.836, -1.982e-4
-0.837, -2.017e-4
-0.838, -2.049e-4
-0.839, -2.083e-4
-0.840, -2.119e-4
-0.841, -2.155e-4
-0.842, -2.189e-4
-0.843, -2.223e-4
-0.844, -2.257e-4
-0.845, -2.291e-4
-0.846, -2.326e-4
-0.847, -2.361e-4
-0.848, -2.396e-4
-0.849, -2.430e-4
-0.850, -2.467e-4
-0.851, -2.503e-4
-0.852, -2.537e-4
-0.853, -2.571e-4
-0.854, -2.606e-4
-0.855, -2.643e-4
-0.856, -2.679e-4
-0.857, -2.714e-4
-0.858, -2.749e-4
-0.859, -2.784e-4
-0.860, -2.821e-4
-0.861, -2.857e-4
-0.862, -2.892e-4
-0.863, -2.927e-4
-0.864, -2.961e-4
-0.865, -2.997e-4
-0.866, -3.034e-4
-0.867, -3.068e-4
-0.868, -3.102e-4
-0.869, -3.137e-4
-0.870, -3.173e-4
-0.871, -3.211e-4
-0.872, -3.246e-4
-0.873, -3.280e-4
-0.874, -3.314e-4
-0.875, -3.350e-4
-0.876, -3.385e-4
-0.877, -3.419e-4
-0.878, -3.452e-4
-0.879, -3.486e-4
-0.880, -3.522e-4
-0.881, -3.557e-4
-0.882, -3.591e-4
-0.883, -3.624e-4
-0.884, -3.657e-4
-0.885, -3.692e-4
-0.886, -3.726e-4
-0.887, -3.759e-4
-0.888, -3.791e-4
-0.889, -3.824e-4
-0.890, -3.858e-4
-0.891, -3.891e-4
-0.892, -3.923e-4
-0.893, -3.954e-4
-0.894, -3.985e-4
-0.895, -4.019e-4
-0.896, -4.050e-4
-0.897, -4.080e-4
-0.898, -4.110e-4
-0.899, -4.141e-4
-0.900, -4.172e-4
-0.901, -4.203e-4
-0.902, -4.233e-4
-0.903, -4.261e-4
-0.904, -4.291e-4
-0.905, -4.321e-4
-0.906, -4.350e-4
-0.907, -4.379e-4
-0.908, -4.406e-4
-0.909, -4.434e-4
-0.910, -4.462e-4
-0.911, -4.491e-4
-0.912, -4.517e-4
-0.913, -4.542e-4
-0.914, -4.569e-4
-0.915, -4.595e-4
-0.916, -4.621e-4
-0.917, -4.645e-4
-0.918, -4.669e-4
-0.919, -4.692e-4
-0.920, -4.717e-4
-0.921, -4.741e-4
-0.922, -4.764e-4
-0.923, -4.786e-4
-0.924, -4.807e-4
-0.925, -4.829e-4
-0.926, -4.850e-4
-0.927, -4.870e-4
-0.928, -4.888e-4
-0.929, -4.906e-4
-0.930, -4.926e-4
-0.931, -4.945e-4
-0.932, -4.961e-4
-0.933, -4.977e-4
-0.934, -4.993e-4
-0.935, -5.009e-4
-0.936, -5.025e-4
-0.937, -5.038e-4
-0.938, -5.050e-4
-0.939, -5.062e-4
-0.940, -5.075e-4
-0.941, -5.086e-4
-0.942, -5.096e-4
-0.943, -5.105e-4
-0.944, -5.113e-4
-0.945, -5.122e-4
-0.946, -5.130e-4
-0.947, -5.135e-4
-0.948, -5.138e-4
-0.949, -5.143e-4
-0.950, -5.148e-4
-0.951, -5.151e-4
-0.952, -5.153e-4
-0.953, -5.153e-4
-0.954, -5.153e-4
-0.955, -5.153e-4
-0.956, -5.152e-4
-0.957, -5.149e-4
-0.958, -5.145e-4
-0.959, -5.140e-4
-0.960, -5.136e-4
-0.961, -5.130e-4
-0.962, -5.123e-4
-0.963, -5.113e-4
-0.964, -5.104e-4
-0.965, -5.095e-4
-0.966, -5.084e-4
-0.967, -5.071e-4
-0.968, -5.057e-4
-0.969, -5.044e-4
-0.970, -5.030e-4
-0.971, -5.014e-4
-0.972, -4.997e-4
-0.973, -4.980e-4
-0.974, -4.961e-4
-0.975, -4.943e-4
-0.976, -4.923e-4
-0.977, -4.901e-4
-0.978, -4.879e-4
-0.979, -4.857e-4
-0.980, -4.835e-4
-0.981, -4.812e-4
-0.982, -4.787e-4
-0.983, -4.762e-4
-0.984, -4.736e-4
-0.985, -4.711e-4
-0.986, -4.687e-4
-0.987, -4.659e-4
-0.988, -4.632e-4
-0.989, -4.605e-4
-0.990, -4.579e-4
-0.991, -4.552e-4
-0.992, -4.524e-4
-0.993, -4.496e-4
-0.994, -4.468e-4
-0.995, -4.441e-4
-0.996, -4.414e-4
-0.997, -4.386e-4
-0.998, -4.358e-4
-0.999, -4.330e-4
-1.000, -4.304e-4
-1.001, -4.278e-4
-1.002, -4.251e-4
-1.003, -4.224e-4
-1.004, -4.198e-4
-1.005, -4.173e-4
-1.006, -4.147e-4
-1.007, -4.121e-4
-1.008, -4.096e-4
-1.009, -4.071e-4
-1.010, -4.048e-4
-1.011, -4.024e-4
-1.012, -3.999e-4
-1.013, -3.976e-4
-1.014, -3.953e-4
-1.015, -3.931e-4
-1.016, -3.908e-4
-1.017, -3.886e-4
-1.018, -3.864e-4
-1.019, -3.842e-4
-1.020, -3.822e-4
-1.021, -3.801e-4
-1.022, -3.780e-4
-1.023, -3.760e-4
-1.024, -3.740e-4
-1.025, -3.721e-4
-1.026, -3.701e-4
-1.027, -3.682e-4
-1.028, -3.663e-4
-1.029, -3.645e-4
-1.030, -3.626e-4
-1.031, -3.608e-4
-1.032, -3.591e-4
-1.033, -3.573e-4
-1.034, -3.556e-4
-1.035, -3.539e-4
-1.036, -3.523e-4
-1.037, -3.506e-4
-1.038, -3.490e-4
-1.039, -3.474e-4
-1.040, -3.458e-4
-1.041, -3.443e-4
-1.042, -3.428e-4
-1.043, -3.413e-4
-1.044, -3.398e-4
-1.045, -3.384e-4
-1.046, -3.369e-4
-1.047, -3.355e-4
-1.048, -3.341e-4
-1.049, -3.327e-4
-1.050, -3.314e-4
-1.051, -3.300e-4
-1.052, -3.287e-4
-1.053, -3.274e-4
-1.054, -3.261e-4
-1.055, -3.249e-4
-1.056, -3.236e-4
-1.057, -3.223e-4
-1.058, -3.211e-4
-1.059, -3.199e-4
-1.060, -3.187e-4
-1.061, -3.175e-4
-1.062, -3.164e-4
-1.063, -3.152e-4
-1.064, -3.141e-4
-1.065, -3.130e-4
-1.066, -3.118e-4
-1.067, -3.107e-4
-1.068, -3.097e-4
-1.069, -3.086e-4
-1.070, -3.075e-4
-1.071, -3.065e-4
-1.072, -3.055e-4
-1.073, -3.044e-4
-1.074, -3.034e-4
-1.075, -3.024e-4
-1.076, -3.014e-4
-1.077, -3.005e-4
-1.078, -2.995e-4
-1.079, -2.985e-4
-1.080, -2.976e-4
-1.081, -2.967e-4
-1.082, -2.957e-4
-1.083, -2.948e-4
-1.084, -2.939e-4
-1.085, -2.930e-4
-1.086, -2.921e-4
-1.087, -2.913e-4
-1.088, -2.904e-4
-1.089, -2.895e-4
-1.090, -2.886e-4
-1.091, -2.878e-4
-1.092, -2.870e-4
-1.093, -2.861e-4
-1.094, -2.853e-4
-1.095, -2.845e-4
-1.096, -2.837e-4
-1.097, -2.829e-4
-1.098, -2.821e-4
-1.099, -2.813e-4
-1.100, -2.806e-4
-1.101, -2.798e-4
-1.102, -2.790e-4
-1.103, -2.783e-4
-1.104, -2.775e-4
-1.105, -2.768e-4
-1.106, -2.761e-4
-1.107, -2.753e-4
-1.108, -2.746e-4
-1.109, -2.739e-4
-1.110, -2.732e-4
-1.111, -2.725e-4
-1.112, -2.718e-4
-1.113, -2.711e-4
-1.114, -2.705e-4
-1.115, -2.698e-4
-1.116, -2.691e-4
-1.117, -2.685e-4
-1.118, -2.678e-4
-1.119, -2.671e-4
-1.120, -2.665e-4
-1.121, -2.659e-4
-1.122, -2.652e-4
-1.123, -2.646e-4
-1.124, -2.640e-4
-1.125, -2.634e-4
-1.126, -2.628e-4
-1.127, -2.621e-4
-1.128, -2.616e-4
-1.129, -2.609e-4
-1.130, -2.604e-4
-1.131, -2.598e-4
-1.132, -2.592e-4
-1.133, -2.586e-4
-1.134, -2.580e-4
-1.135, -2.575e-4
-1.136, -2.569e-4
-1.137, -2.563e-4
-1.138, -2.558e-4
-1.139, -2.552e-4
-1.140, -2.547e-4
-1.141, -2.541e-4
-1.142, -2.536e-4
-1.143, -2.531e-4
-1.144, -2.525e-4
-1.145, -2.520e-4
-1.146, -2.515e-4
-1.147, -2.510e-4
-1.148, -2.505e-4
-1.149, -2.500e-4
-1.150, -2.494e-4
-1.151, -2.489e-4
-1.152, -2.484e-4
-1.153, -2.479e-4
-1.154, -2.475e-4
-1.155, -2.469e-4
-1.156, -2.465e-4
-1.157, -2.460e-4
-1.158, -2.455e-4
-1.159, -2.450e-4
-1.160, -2.446e-4
-1.161, -2.441e-4
-1.162, -2.436e-4
-1.163, -2.432e-4
-1.164, -2.427e-4
-1.165, -2.423e-4
-1.166, -2.418e-4
-1.167, -2.414e-4
-1.168, -2.409e-4
-1.169, -2.405e-4
-1.170, -2.400e-4
-1.171, -2.396e-4
-1.172, -2.392e-4
-1.173, -2.387e-4
-1.174, -2.383e-4
-1.175, -2.379e-4
-1.176, -2.375e-4
-1.177, -2.371e-4
-1.178, -2.366e-4
-1.179, -2.362e-4
-1.180, -2.358e-4
-1.181, -2.354e-4
-1.182, -2.350e-4
-1.183, -2.346e-4
-1.184, -2.342e-4
-1.185, -2.338e-4
-1.186, -2.334e-4
-1.187, -2.330e-4
-1.188, -2.326e-4
-1.189, -2.322e-4
-1.190, -2.318e-4
-1.191, -2.314e-4
-1.192, -2.311e-4
-1.193, -2.307e-4
-1.194, -2.303e-4
-1.195, -2.299e-4
-1.196, -2.296e-4
-1.197, -2.292e-4
-1.198, -2.289e-4
-1.199, -2.285e-4
-1.200, -2.281e-4
-1.199, -2.274e-4
-1.198, -2.268e-4
-1.197, -2.263e-4
-1.196, -2.258e-4
-1.195, -2.253e-4
-1.194, -2.249e-4
-1.193, -2.244e-4
-1.192, -2.240e-4
-1.191, -2.236e-4
-1.190, -2.232e-4
-1.189, -2.227e-4
-1.188, -2.223e-4
-1.187, -2.220e-4
-1.186, -2.215e-4
-1.185, -2.212e-4
-1.184, -2.208e-4
-1.183, -2.204e-4
-1.182, -2.200e-4
-1.181, -2.197e-4
-1.180, -2.193e-4
-1.179, -2.189e-4
-1.178, -2.186e-4
-1.177, -2.182e-4
-1.176, -2.179e-4
-1.175, -2.175e-4
-1.174, -2.172e-4
-1.173, -2.168e-4
-1.172, -2.165e-4
-1.171, -2.162e-4
-1.170, -2.158e-4
-1.169, -2.155e-4
-1.168, -2.152e-4
-1.167, -2.149e-4
-1.166, -2.146e-4
-1.165, -2.142e-4
-1.164, -2.139e-4
-1.163, -2.136e-4
-1.162, -2.133e-4
-1.161, -2.130e-4
-1.160, -2.126e-4
-1.159, -2.123e-4
-1.158, -2.121e-4
-1.157, -2.118e-4
-1.156, -2.114e-4
-1.155, -2.111e-4
-1.154, -2.108e-4
-1.153, -2.105e-4
-1.152, -2.102e-4
-1.151, -2.100e-4
-1.150, -2.097e-4
-1.149, -2.094e-4
-1.148, -2.091e-4
-1.147, -2.088e-4
-1.146, -2.085e-4
-1.145, -2.082e-4
-1.144, -2.079e-4
-1.143, -2.076e-4
-1.142, -2.073e-4
-1.141, -2.071e-4
-1.140, -2.068e-4
-1.139, -2.065e-4
-1.138, -2.062e-4
-1.137, -2.060e-4
-1.136, -2.057e-4
-1.135, -2.055e-4
-1.134, -2.052e-4
-1.133, -2.049e-4
-1.132, -2.047e-4
-1.131, -2.044e-4
-1.130, -2.042e-4
-1.129, -2.039e-4
-1.128, -2.036e-4
-1.127, -2.034e-4
-1.126, -2.031e-4
-1.125, -2.028e-4
-1.124, -2.026e-4
-1.123, -2.024e-4
-1.122, -2.021e-4
-1.121, -2.019e-4
-1.120, -2.016e-4
-1.119, -2.014e-4
-1.118, -2.011e-4
-1.117, -2.009e-4
-1.116, -2.006e-4
-1.115, -2.004e-4
-1.114, -2.001e-4
-1.113, -1.999e-4
-1.112, -1.996e-4
-1.111, -1.994e-4
-1.110, -1.992e-4
-1.109, -1.989e-4
-1.108, -1.987e-4
-1.107, -1.985e-4
-1.106, -1.982e-4
-1.105, -1.980e-4
-1.104, -1.977e-4
-1.103, -1.975e-4
-1.102, -1.973e-4
-1.101, -1.970e-4
-1.100, -1.968e-4
-1.099, -1.965e-4
-1.098, -1.963e-4
-1.097, -1.961e-4
-1.096, -1.958e-4
-1.095, -1.956e-4
-1.094, -1.954e-4
-1.093, -1.951e-4
-1.092, -1.949e-4
-1.091, -1.947e-4
-1.090, -1.944e-4
-1.089, -1.942e-4
-1.088, -1.940e-4
-1.087, -1.937e-4
-1.086, -1.935e-4
-1.085, -1.933e-4
-1.084, -1.931e-4
-1.083, -1.929e-4
-1.082, -1.927e-4
-1.081, -1.924e-4
-1.080, -1.922e-4
-1.079, -1.920e-4
-1.078, -1.918e-4
-1.077, -1.915e-4
-1.076, -1.913e-4
-1.075, -1.911e-4
-1.074, -1.909e-4
-1.073, -1.907e-4
-1.072, -1.905e-4
-1.071, -1.902e-4
-1.070, -1.900e-4
-1.069, -1.898e-4
-1.068, -1.896e-4
-1.067, -1.894e-4
-1.066, -1.892e-4
-1.065, -1.889e-4
-1.064, -1.887e-4
-1.063, -1.885e-4
-1.062, -1.883e-4
-1.061, -1.881e-4
-1.060, -1.878e-4
-1.059, -1.876e-4
-1.058, -1.874e-4
-1.057, -1.872e-4
-1.056, -1.869e-4
-1.055, -1.867e-4
-1.054, -1.865e-4
-1.053, -1.863e-4
-1.052, -1.861e-4
-1.051, -1.858e-4
-1.050, -1.856e-4
-1.049, -1.854e-4
-1.048, -1.851e-4
-1.047, -1.849e-4
-1.046, -1.847e-4
-1.045, -1.845e-4
-1.044, -1.842e-4
-1.043, -1.840e-4
-1.042, -1.838e-4
-1.041, -1.835e-4
-1.040, -1.833e-4
-1.039, -1.831e-4
-1.038, -1.828e-4
-1.037, -1.826e-4
-1.036, -1.823e-4
-1.035, -1.821e-4
-1.034, -1.818e-4
-1.033, -1.816e-4
-1.032, -1.813e-4
-1.031, -1.811e-4
-1.030, -1.808e-4
-1.029, -1.806e-4
-1.028, -1.803e-4
-1.027, -1.801e-4
-1.026, -1.798e-4
-1.025, -1.795e-4
-1.024, -1.792e-4
-1.023, -1.790e-4
-1.022, -1.787e-4
-1.021, -1.784e-4
-1.020, -1.782e-4
-1.019, -1.779e-4
-1.018, -1.776e-4
-1.017, -1.773e-4
-1.016, -1.770e-4
-1.015, -1.767e-4
-1.014, -1.765e-4
-1.013, -1.762e-4
-1.012, -1.759e-4
-1.011, -1.755e-4
-1.010, -1.753e-4
-1.009, -1.750e-4
-1.008, -1.746e-4
-1.007, -1.743e-4
-1.006, -1.740e-4
-1.005, -1.736e-4
-1.004, -1.733e-4
-1.003, -1.730e-4
-1.002, -1.726e-4
-1.001, -1.722e-4
-1.000, -1.719e-4
-0.999, -1.715e-4
-0.998, -1.712e-4
-0.997, -1.708e-4
-0.996, -1.704e-4
-0.995, -1.700e-4
-0.994, -1.696e-4
-0.993, -1.692e-4
-0.992, -1.688e-4
-0.991, -1.684e-4
-0.990, -1.679e-4
-0.989, -1.675e-4
-0.988, -1.670e-4
-0.987, -1.666e-4
-0.986, -1.661e-4
-0.985, -1.656e-4
-0.984, -1.652e-4
-0.983, -1.646e-4
-0.982, -1.641e-4
-0.981, -1.636e-4
-0.980, -1.631e-4
-0.979, -1.626e-4
-0.978, -1.620e-4
-0.977, -1.614e-4
-0.976, -1.608e-4
-0.975, -1.603e-4
-0.974, -1.597e-4
-0.973, -1.590e-4
-0.972, -1.583e-4
-0.971, -1.576e-4
-0.970, -1.570e-4
-0.969, -1.564e-4
-0.968, -1.556e-4
-0.967, -1.549e-4
-0.966, -1.542e-4
-0.965, -1.535e-4
-0.964, -1.527e-4
-0.963, -1.519e-4
-0.962, -1.511e-4
-0.961, -1.502e-4
-0.960, -1.494e-4
-0.959, -1.486e-4
-0.958, -1.477e-4
-0.957, -1.468e-4
-0.956, -1.458e-4
-0.955, -1.450e-4
-0.954, -1.441e-4
-0.953, -1.431e-4
-0.952, -1.420e-4
-0.951, -1.410e-4
-0.950, -1.400e-4
-0.949, -1.390e-4
-0.948, -1.378e-4
-0.947, -1.368e-4
-0.946, -1.357e-4
-0.945, -1.345e-4
-0.944, -1.334e-4
-0.943, -1.322e-4
-0.942, -1.309e-4
-0.941, -1.296e-4
-0.940, -1.284e-4
-0.939, -1.271e-4
-0.938, -1.258e-4
-0.937, -1.244e-4
-0.936, -1.230e-4
-0.935, -1.216e-4
-0.934, -1.202e-4
-0.933, -1.187e-4
-0.932, -1.171e-4
-0.931, -1.156e-4
-0.930, -1.142e-4
-0.929, -1.127e-4
-0.928, -1.110e-4
-0.927, -1.094e-4
-0.926, -1.077e-4
-0.925, -1.060e-4
-0.924, -1.044e-4
-0.923, -1.026e-4
-0.922, -1.007e-4
-0.921, -9.883e-5
-0.920, -9.713e-5
-0.919, -9.533e-5
-0.918, -9.342e-5
-0.917, -9.141e-5
-0.916, -8.946e-5
-0.915, -8.761e-5
-0.914, -8.569e-5
-0.913, -8.359e-5
-0.912, -8.146e-5
-0.911, -7.937e-5
-0.910, -7.730e-5
-0.909, -7.523e-5
-0.908, -7.295e-5
-0.907, -7.070e-5
-0.906, -6.845e-5
-0.905, -6.629e-5
-0.904, -6.407e-5
-0.903, -6.173e-5
-0.902, -5.932e-5
-0.901, -5.698e-5
-0.900, -5.464e-5
-0.899, -5.227e-5
-0.898, -4.983e-5
-0.897, -4.725e-5
-0.896, -4.485e-5
-0.895, -4.254e-5
-0.894, -4.001e-5
-0.893, -3.740e-5
-0.892, -3.469e-5
-0.891, -3.204e-5
-0.890, -2.949e-5
-0.889, -2.687e-5
-0.888, -2.414e-5
-0.887, -2.131e-5
-0.886, -1.857e-5
-0.885, -1.589e-5
-0.884, -1.316e-5
-0.883, -1.027e-5
-0.882, -7.348e-6
-0.881, -4.428e-6
-0.880, -1.630e-6
-0.879, 1.137e-6
-0.878, 4.148e-6
-0.877, 7.220e-6
-0.876, 1.017e-5
-0.875, 1.306e-5
-0.874, 1.595e-5
-0.873, 1.905e-5
-0.872, 2.221e-5
-0.871, 2.532e-5
-0.870, 2.845e-5
-0.869, 3.146e-5
-0.868, 3.465e-5
-0.867, 3.788e-5
-0.866, 4.101e-5
-0.865, 4.417e-5
-0.864, 4.727e-5
-0.863, 5.044e-5
-0.862, 5.381e-5
-0.861, 5.701e-5
-0.860, 6.011e-5
-0.859, 6.327e-5
-0.858, 6.665e-5
-0.857, 7.008e-5
-0.856, 7.340e-5
-0.855, 7.656e-5
-0.854, 7.979e-5
-0.853, 8.319e-5
-0.852, 8.663e-5
-0.851, 9.000e-5
-0.850, 9.320e-5
-0.849, 9.654e-5
-0.848, 9.995e-5
-0.847, 1.034e-4
-0.846, 1.068e-4
-0.845, 1.101e-4
-0.844, 1.133e-4
-0.843, 1.167e-4
-0.842, 1.203e-4
-0.841, 1.237e-4
-0.840, 1.271e-4
-0.839, 1.305e-4
-0.838, 1.340e-4
-0.837, 1.375e-4
-0.836, 1.410e-4
-0.835, 1.444e-4
-0.834, 1.477e-4
-0.833, 1.513e-4
-0.832, 1.548e-4
-0.831, 1.584e-4
-0.830, 1.618e-4
-0.829, 1.652e-4
-0.828, 1.686e-4
-0.827, 1.722e-4
-0.826, 1.757e-4
-0.825, 1.791e-4
-0.824, 1.824e-4
-0.823, 1.860e-4
-0.822, 1.895e-4
-0.821, 1.930e-4
-0.820, 1.964e-4
-0.819, 1.994e-4
-0.818, 2.027e-4
-0.817, 2.062e-4
-0.816, 2.097e-4
-0.815, 2.130e-4
-0.814, 2.164e-4
-0.813, 2.198e-4
-0.812, 2.233e-4
-0.811, 2.268e-4
-0.810, 2.301e-4
-0.809, 2.333e-4
-0.808, 2.367e-4
-0.807, 2.402e-4
-0.806, 2.436e-4
-0.805, 2.468e-4
-0.804, 2.501e-4
-0.803, 2.534e-4
-0.802, 2.568e-4
-0.801, 2.601e-4
-0.800, 2.632e-4
-0.799, 2.663e-4
-0.798, 2.696e-4
-0.797, 2.729e-4
-0.796, 2.760e-4
-0.795, 2.791e-4
-0.794, 2.821e-4
-0.793, 2.851e-4
-0.792, 2.883e-4
-0.791, 2.914e-4
-0.790, 2.943e-4
-0.789, 2.972e-4
-0.788, 3.002e-4
-0.787, 3.033e-4
-0.786, 3.062e-4
-0.785, 3.091e-4
-0.784, 3.119e-4
-0.783, 3.147e-4
-0.782, 3.177e-4
-0.781, 3.205e-4
-0.780, 3.231e-4
-0.779, 3.258e-4
-0.778, 3.285e-4
-0.777, 3.313e-4
-0.776, 3.339e-4
-0.775, 3.363e-4
-0.774, 3.388e-4
-0.773, 3.413e-4
-0.772, 3.439e-4
-0.771, 3.463e-4
-0.770, 3.485e-4
-0.769, 3.508e-4
-0.768, 3.532e-4
-0.767, 3.557e-4
-0.766, 3.579e-4
-0.765, 3.599e-4
-0.764, 3.618e-4
-0.763, 3.640e-4
-0.762, 3.660e-4
-0.761, 3.679e-4
-0.760, 3.697e-4
-0.759, 3.714e-4
-0.758, 3.732e-4
-0.757, 3.750e-4
-0.756, 3.766e-4
-0.755, 3.781e-4
-0.754, 3.795e-4
-0.753, 3.810e-4
-0.752, 3.825e-4
-0.751, 3.838e-4
-0.750, 3.849e-4
-0.749, 3.860e-4
-0.748, 3.871e-4
-0.747, 3.882e-4
-0.746, 3.891e-4
-0.745, 3.899e-4
-0.744, 3.906e-4
-0.743, 3.914e-4
-0.742, 3.919e-4
-0.741, 3.924e-4
-0.740, 3.929e-4
-0.739, 3.931e-4
-0.738, 3.934e-4
-0.737, 3.937e-4
-0.736, 3.938e-4
-0.735, 3.937e-4
-0.734, 3.936e-4
-0.733, 3.935e-4
-0.732, 3.933e-4
-0.731, 3.929e-4
-0.730, 3.924e-4
-0.729, 3.918e-4
-0.728, 3.912e-4
-0.727, 3.906e-4
-0.726, 3.898e-4
-0.725, 3.888e-4
-0.724, 3.877e-4
-0.723, 3.866e-4
-0.722, 3.855e-4
-0.721, 3.842e-4
-0.720, 3.827e-4
-0.719, 3.811e-4
-0.718, 3.796e-4
-0.717, 3.781e-4
-0.716, 3.764e-4
-0.715, 3.745e-4
-0.714, 3.725e-4
-0.713, 3.706e-4
-0.712, 3.686e-4
-0.711, 3.665e-4
-0.710, 3.642e-4
-0.709, 3.619e-4
-0.708, 3.596e-4
-0.707, 3.573e-4
-0.706, 3.549e-4
-0.705, 3.523e-4
-0.704, 3.498e-4
-0.703, 3.473e-4
-0.702, 3.448e-4
-0.701, 3.421e-4
-0.700, 3.395e-4
-0.699, 3.367e-4
-0.698, 3.341e-4
-0.697, 3.315e-4
-0.696, 3.288e-4
-0.695, 3.260e-4
-0.694, 3.233e-4
-0.693, 3.207e-4
-0.692, 3.180e-4
-0.691, 3.153e-4
-0.690, 3.125e-4
-0.689, 3.099e-4
-0.688, 3.073e-4
-0.687, 3.047e-4
-0.686, 3.022e-4
-0.685, 2.996e-4
-0.684, 2.971e-4
-0.683, 2.946e-4
-0.682, 2.922e-4
-0.681, 2.897e-4
-0.680, 2.873e-4
-0.679, 2.849e-4
-0.678, 2.825e-4
-0.677, 2.802e-4
-0.676, 2.780e-4
-0.675, 2.756e-4
-0.674, 2.734e-4
-0.673, 2.712e-4
-0.672, 2.691e-4
-0.671, 2.669e-4
-0.670, 2.648e-4
-0.669, 2.627e-4
-0.668, 2.607e-4
-0.667, 2.587e-4
-0.666, 2.567e-4
-0.665, 2.548e-4
-0.664, 2.529e-4
-0.663, 2.510e-4
-0.662, 2.491e-4
-0.661, 2.473e-4
-0.660, 2.455e-4
-0.659, 2.437e-4
-0.658, 2.419e-4
-0.657, 2.402e-4
-0.656, 2.385e-4
-0.655, 2.368e-4
-0.654, 2.352e-4
-0.653, 2.336e-4
-0.652, 2.320e-4
-0.651, 2.304e-4
-0.650, 2.288e-4
-0.649, 2.273e-4
-0.648, 2.258e-4
-0.647, 2.243e-4
-0.646, 2.229e-4
-0.645, 2.214e-4
-0.644, 2.200e-4
-0.643, 2.186e-4
-0.642, 2.172e-4
-0.641, 2.159e-4
-0.640, 2.145e-4
-0.639, 2.131e-4
-0.638, 2.118e-4
-0.637, 2.106e-4
-0.636, 2.093e-4
-0.635, 2.080e-4
-0.634, 2.068e-4
-0.633, 2.055e-4
-0.632, 2.043e-4
-0.631, 2.031e-4
-0.630, 2.020e-4
-0.629, 2.008e-4
-0.628, 1.997e-4
-0.627, 1.985e-4
-0.626, 1.974e-4
-0.625, 1.963e-4
-0.624, 1.952e-4
-0.623, 1.941e-4
-0.622, 1.931e-4
-0.621, 1.920e-4
-0.620, 1.910e-4
-0.619, 1.899e-4
-0.618, 1.889e-4
-0.617, 1.879e-4
-0.616, 1.869e-4
-0.615, 1.860e-4
-0.614, 1.850e-4
-0.613, 1.840e-4
-0.612, 1.831e-4
-0.611, 1.821e-4
-0.610, 1.812e-4
-0.609, 1.803e-4
-0.608, 1.794e-4
-0.607, 1.785e-4
-0.606, 1.776e-4
-0.605, 1.767e-4
-0.604, 1.758e-4
-0.603, 1.749e-4
-0.602, 1.741e-4
-0.601, 1.733e-4
-0.600, 1.724e-4
-0.599, 1.716e-4
-0.598, 1.708e-4
-0.597, 1.700e-4
-0.596, 1.692e-4
-0.595, 1.684e-4
-0.594, 1.676e-4
-0.593, 1.668e-4
-0.592, 1.660e-4
-0.591, 1.653e-4
-0.590, 1.645e-4
-0.589, 1.638e-4
-0.588, 1.631e-4
-0.587, 1.623e-4
-0.586, 1.616e-4
-0.585, 1.609e-4
-0.584, 1.602e-4
-0.583, 1.595e-4
-0.582, 1.588e-4
-0.581, 1.581e-4
-0.580, 1.574e-4
-0.579, 1.567e-4
-0.578, 1.560e-4
-0.577, 1.554e-4
-0.576, 1.547e-4
-0.575, 1.541e-4
-0.574, 1.534e-4
-0.573, 1.527e-4
-0.572, 1.521e-4
-0.571, 1.515e-4
-0.570, 1.509e-4
-0.569, 1.502e-4
-0.568, 1.496e-4
-0.567, 1.490e-4
-0.566, 1.484e-4
-0.565, 1.478e-4
-0.564, 1.472e-4
-0.563, 1.466e-4
-0.562, 1.460e-4
-0.561, 1.454e-4
-0.560, 1.449e-4
-0.559, 1.443e-4
-0.558, 1.437e-4
-0.557, 1.432e-4
-0.556, 1.426e-4
-0.555, 1.421e-4
-0.554, 1.415e-4
-0.553, 1.409e-4
-0.552, 1.404e-4
-0.551, 1.399e-4
-0.550, 1.394e-4
-0.549, 1.388e-4
-0.548, 1.383e-4
-0.547, 1.378e-4
-0.546, 1.373e-4
-0.545, 1.367e-4
-0.544, 1.362e-4
-0.543, 1.357e-4
-0.542, 1.352e-4
-0.541, 1.347e-4
-0.540, 1.342e-4
-0.539, 1.337e-4
-0.538, 1.332e-4
-0.537, 1.327e-4
-0.536, 1.322e-4
-0.535, 1.318e-4
-0.534, 1.313e-4
-0.533, 1.308e-4
-0.532, 1.303e-4
-0.531, 1.299e-4
-0.530, 1.294e-4
-0.529, 1.290e-4
-0.528, 1.285e-4
-0.527, 1.280e-4
-0.526, 1.276e-4
-0.525, 1.271e-4
-0.524, 1.267e-4
-0.523, 1.263e-4
-0.522, 1.258e-4
-0.521, 1.254e-4
-0.520, 1.250e-4
-0.519, 1.246e-4
-0.518, 1.241e-4
-0.517, 1.237e-4
-0.516, 1.233e-4
-0.515, 1.228e-4
-0.514, 1.225e-4
-0.513, 1.220e-4
-0.512, 1.216e-4
-0.511, 1.212e-4
-0.510, 1.208e-4
-0.509, 1.204e-4
-0.508, 1.200e-4
-0.507, 1.196e-4
-0.506, 1.192e-4
-0.505, 1.188e-4
-0.504, 1.184e-4
-0.503, 1.180e-4
-0.502, 1.176e-4
-0.501, 1.173e-4
-0.500, 1.168e-4
-0.501, 1.163e-4
-0.502, 1.158e-4
-0.503, 1.153e-4
-0.504, 1.149e-4
-0.505, 1.145e-4
-0.506, 1.141e-4
-0.507, 1.137e-4
-0.508, 1.133e-4
-0.509, 1.129e-4
-0.510, 1.125e-4
-0.511, 1.121e-4
-0.512, 1.117e-4
-0.513, 1.114e-4
-0.514, 1.110e-4
-0.515, 1.106e-4
-0.516, 1.102e-4
-0.517, 1.099e-4
-0.518, 1.095e-4
-0.519, 1.091e-4
-0.520, 1.088e-4
-0.521, 1.084e-4
-0.522, 1.080e-4
-0.523, 1.077e-4
-0.524, 1.073e-4
-0.525, 1.070e-4
-0.526, 1.066e-4
-0.527, 1.063e-4
-0.528, 1.060e-4
-0.529, 1.056e-4
-0.530, 1.053e-4
-0.531, 1.050e-4
-0.532, 1.046e-4
-0.533, 1.043e-4
-0.534, 1.040e-4
-0.535, 1.036e-4
-0.536, 1.033e-4
-0.537, 1.030e-4
-0.538, 1.027e-4
-0.539, 1.024e-4
-0.540, 1.020e-4
-0.541, 1.017e-4
-0.542, 1.014e-4
-0.543, 1.011e-4
-0.544, 1.008e-4
-0.545, 1.005e-4
-0.546, 1.001e-4
-0.547, 9.983e-5
-0.548, 9.952e-5
-0.549, 9.922e-5
-0.550, 9.891e-5
-0.551, 9.861e-5
-0.552, 9.831e-5
-0.553, 9.800e-5
-0.554, 9.773e-5
-0.555, 9.742e-5
-0.556, 9.712e-5
-0.557, 9.682e-5
-0.558, 9.654e-5
-0.559, 9.624e-5
-0.560, 9.596e-5
-0.561, 9.569e-5
-0.562, 9.539e-5
-0.563, 9.511e-5
-0.564, 9.484e-5
-0.565, 9.457e-5
-0.566, 9.426e-5
-0.567, 9.399e-5
-0.568, 9.371e-5
-0.569, 9.344e-5
-0.570, 9.317e-5
-0.571, 9.289e-5
-0.572, 9.262e-5
-0.573, 9.235e-5
-0.574, 9.210e-5
-0.575, 9.183e-5
-0.576, 9.155e-5
-0.577, 9.128e-5
-0.578, 9.101e-5
-0.579, 9.076e-5
-0.580, 9.049e-5
-0.581, 9.025e-5
-0.582, 8.997e-5
-0.583, 8.970e-5
-0.584, 8.946e-5
-0.585, 8.921e-5
-0.586, 8.894e-5
-0.587, 8.867e-5
-0.588, 8.842e-5
-0.589, 8.818e-5
-0.590, 8.794e-5
-0.591, 8.766e-5
-0.592, 8.739e-5
-0.593, 8.715e-5
-0.594, 8.690e-5
-0.595, 8.666e-5
-0.596, 8.642e-5
-0.597, 8.614e-5
-0.598, 8.590e-5
-0.599, 8.565e-5
-0.600, 8.541e-5
-0.601, 8.517e-5
-0.602, 8.492e-5
-0.603, 8.468e-5
-0.604, 8.444e-5
-0.605, 8.420e-5
-0.606, 8.395e-5
-0.607, 8.371e-5
-0.608, 8.347e-5
-0.609, 8.322e-5
-0.610, 8.301e-5
-0.611, 8.274e-5
-0.612, 8.249e-5
-0.613, 8.225e-5
-0.614, 8.204e-5
-0.615, 8.179e-5
-0.616, 8.155e-5
-0.617, 8.131e-5
-0.618, 8.106e-5
-0.619, 8.082e-5
-0.620, 8.061e-5
-0.621, 8.036e-5
-0.622, 8.012e-5
-0.623, 7.988e-5
-0.624, 7.966e-5
-0.625, 7.942e-5
-0.626, 7.918e-5
-0.627, 7.893e-5
-0.628, 7.869e-5
-0.629, 7.848e-5
-0.630, 7.823e-5
-0.631, 7.799e-5
-0.632, 7.775e-5
-0.633, 7.753e-5
-0.634, 7.729e-5
-0.635, 7.705e-5
-0.636, 7.684e-5
-0.637, 7.659e-5
-0.638, 7.635e-5
-0.639, 7.611e-5
-0.640, 7.586e-5
-0.641, 7.562e-5
-0.642, 7.538e-5
-0.643, 7.513e-5
-0.644, 7.489e-5
-0.645, 7.465e-5
-0.646, 7.440e-5
-0.647, 7.413e-5
-0.648, 7.389e-5
-0.649, 7.364e-5
-0.650, 7.337e-5
-0.651, 7.312e-5
-0.652, 7.285e-5
-0.653, 7.261e-5
-0.654, 7.233e-5
-0.655, 7.206e-5
-0.656, 7.182e-5
-0.657, 7.154e-5
-0.658, 7.127e-5
-0.659, 7.103e-5
-0.660, 7.075e-5
-0.661, 7.045e-5
-0.662, 7.017e-5
-0.663, 6.990e-5
-0.664, 6.963e-5
-0.665, 6.935e-5
-0.666, 6.902e-5
-0.667, 6.875e-5
-0.668, 6.847e-5
-0.669, 6.817e-5
-0.670, 6.786e-5
-0.671, 6.756e-5
-0.672, 6.726e-5
-0.673, 6.695e-5
-0.674, 6.662e-5
-0.675, 6.631e-5
-0.676, 6.598e-5
-0.677, 6.564e-5
-0.678, 6.531e-5
-0.679, 6.497e-5
-0.680, 6.461e-5
-0.681, 6.424e-5
-0.682, 6.391e-5
-0.683, 6.354e-5
-0.684, 6.318e-5
-0.685, 6.278e-5
-0.686, 6.242e-5
-0.687, 6.202e-5
-0.688, 6.166e-5
-0.689, 6.126e-5
-0.690, 6.081e-5
-0.691, 6.041e-5
-0.692, 6.005e-5
-0.693, 5.959e-5
-0.694, 5.913e-5
-0.695, 5.868e-5
-0.696, 5.822e-5
-0.697, 5.777e-5
-0.698, 5.731e-5
-0.699, 5.682e-5
-0.700, 5.631e-5
-0.701, 5.579e-5
-0.702, 5.533e-5
-0.703, 5.482e-5
-0.704, 5.427e-5
-0.705, 5.369e-5
-0.706, 5.311e-5
-0.707, 5.257e-5
-0.708, 5.202e-5
-0.709, 5.141e-5
-0.710, 5.077e-5
-0.711, 5.013e-5
-0.712, 4.952e-5
-0.713, 4.889e-5
-0.714, 4.822e-5
-0.715, 4.749e-5
-0.716, 4.679e-5
-0.717, 4.606e-5
-0.718, 4.536e-5
-0.719, 4.463e-5
-0.720, 4.387e-5
-0.721, 4.305e-5
-0.722, 4.226e-5
-0.723, 4.150e-5
-0.724, 4.067e-5
-0.725, 3.976e-5
-0.726, 3.888e-5
-0.727, 3.803e-5
-0.728, 3.715e-5
-0.729, 3.623e-5
-0.730, 3.523e-5
-0.731, 3.423e-5
-0.732, 3.325e-5
-0.733, 3.231e-5
-0.734, 3.128e-5
-0.735, 3.015e-5
-0.736, 2.906e-5
-0.737, 2.799e-5
-0.738, 2.690e-5
-0.739, 2.574e-5
-0.740, 2.456e-5
-0.741, 2.331e-5
-0.742, 2.215e-5
-0.743, 2.103e-5
-0.744, 1.975e-5
-0.745, 1.838e-5
-0.746, 1.704e-5
-0.747, 1.567e-5
-0.748, 1.437e-5
-0.749, 1.300e-5
-0.750, 1.151e-5
-0.751, 9.957e-6
-0.752, 8.558e-6
-0.753, 7.098e-6
-0.754, 5.547e-6
-0.755, 3.905e-6
-0.756, 2.232e-6
-0.757, 6.811e-7
-0.758, -9.004e-7
-0.759, -2.543e-6
-0.760, -4.337e-6
-0.761, -6.101e-6
-0.762, -7.865e-6
-0.763, -9.538e-6
-0.764, -1.133e-5
-0.765, -1.328e-5
-0.766, -1.519e-5
-0.767, -1.708e-5
-0.768, -1.906e-5
-0.769, -2.100e-5
-0.770, -2.310e-5
-0.771, -2.520e-5
-0.772, -2.715e-5
-0.773, -2.918e-5
-0.774, -3.125e-5
-0.775, -3.347e-5
-0.776, -3.569e-5
-0.777, -3.785e-5
-0.778, -4.001e-5
-0.779, -4.223e-5
-0.780, -4.463e-5
-0.781, -4.704e-5
-0.782, -4.935e-5
-0.783, -5.166e-5
-0.784, -5.397e-5
-0.785, -5.646e-5
-0.786, -5.902e-5
-0.787, -6.139e-5
-0.788, -6.379e-5
-0.789, -6.635e-5
-0.790, -6.903e-5
-0.791, -7.164e-5
-0.792, -7.426e-5
-0.793, -7.675e-5
-0.794, -7.924e-5
-0.795, -8.195e-5
-0.796, -8.478e-5
-0.797, -8.749e-5
-0.798, -9.013e-5
-0.799, -9.296e-5
-0.800, -9.582e-5
-0.801, -9.874e-5
-0.802, -1.016e-4
-0.803, -1.043e-4
-0.804, -1.072e-4
-0.805, -1.103e-4
-0.806, -1.133e-4
-0.807, -1.163e-4
-0.808, -1.191e-4
-0.809, -1.221e-4
-0.810, -1.253e-4
-0.811, -1.284e-4
-0.812, -1.314e-4
-0.813, -1.344e-4
-0.814, -1.375e-4
-0.815, -1.407e-4
-0.816, -1.440e-4
-0.817, -1.471e-4
-0.818, -1.502e-4
-0.819, -1.532e-4
-0.820, -1.561e-4
-0.821, -1.595e-4
-0.822, -1.627e-4
-0.823, -1.659e-4
-0.824, -1.692e-4
-0.825, -1.726e-4
-0.826, -1.760e-4
-0.827, -1.792e-4
-0.828, -1.825e-4
-0.829, -1.858e-4
-0.830, -1.892e-4
-0.831, -1.927e-4
-0.832, -1.961e-4
-0.833, -1.994e-4
-0.834, -2.029e-4
-0.835, -2.064e-4
-0.836, -2.099e-4
-0.837, -2.133e-4
-0.838, -2.166e-4
-0.839, -2.200e-4
-0.840, -2.236e-4
-0.841, -2.272e-4
-0.842, -2.306e-4
-0.843, -2.339e-4
-0.844, -2.375e-4
-0.845, -2.409e-4
-0.846, -2.444e-4
-0.847, -2.479e-4
-0.848, -2.514e-4
-0.849, -2.548e-4
-0.850, -2.585e-4
-0.851, -2.620e-4
-0.852, -2.655e-4
-0.853, -2.690e-4
-0.854, -2.725e-4
-0.855, -2.761e-4
-0.856, -2.797e-4
-0.857, -2.833e-4
-0.858, -2.867e-4
-0.859, -2.902e-4
-0.860, -2.939e-4
-0.861, -2.975e-4
-0.862, -3.010e-4
-0.863, -3.045e-4
-0.864, -3.080e-4
-0.865, -3.116e-4
-0.866, -3.152e-4
-0.867, -3.186e-4
-0.868, -3.220e-4
-0.869, -3.255e-4
-0.870, -3.292e-4
-0.871, -3.329e-4
-0.872, -3.364e-4
-0.873, -3.398e-4
-0.874, -3.432e-4
-0.875, -3.467e-4
-0.876, -3.503e-4
-0.877, -3.537e-4
-0.878, -3.569e-4
-0.879, -3.604e-4
-0.880, -3.638e-4
-0.881, -3.673e-4
-0.882, -3.707e-4
-0.883, -3.739e-4
-0.884, -3.772e-4
-0.885, -3.807e-4
-0.886, -3.841e-4
-0.887, -3.873e-4
-0.888, -3.905e-4
-0.889, -3.937e-4
-0.890, -3.970e-4
-0.891, -4.003e-4
-0.892, -4.035e-4
-0.893, -4.065e-4
-0.894, -4.096e-4
-0.895, -4.129e-4
-0.896, -4.159e-4
-0.897, -4.189e-4
-0.898, -4.219e-4
-0.899, -4.249e-4
-0.900, -4.279e-4
-0.901, -4.310e-4
-0.902, -4.339e-4
-0.903, -4.367e-4
-0.904, -4.395e-4
-0.905, -4.425e-4
-0.906, -4.455e-4
-0.907, -4.482e-4
-0.908, -4.508e-4
-0.909, -4.535e-4
-0.910, -4.563e-4
-0.911, -4.591e-4
-0.912, -4.616e-4
-0.913, -4.641e-4
-0.914, -4.665e-4
-0.915, -4.691e-4
-0.916, -4.716e-4
-0.917, -4.739e-4
-0.918, -4.762e-4
-0.919, -4.785e-4
-0.920, -4.808e-4
-0.921, -4.831e-4
-0.922, -4.853e-4
-0.923, -4.874e-4
-0.924, -4.894e-4
-0.925, -4.915e-4
-0.926, -4.935e-4
-0.927, -4.954e-4
-0.928, -4.970e-4
-0.929, -4.988e-4
-0.930, -5.006e-4
-0.931, -5.023e-4
-0.932, -5.038e-4
-0.933, -5.052e-4
-0.934, -5.066e-4
-0.935, -5.081e-4
-0.936, -5.096e-4
-0.937, -5.107e-4
-0.938, -5.117e-4
-0.939, -5.128e-4
-0.940, -5.139e-4
-0.941, -5.149e-4
-0.942, -5.157e-4
-0.943, -5.164e-4
-0.944, -5.171e-4
-0.945, -5.178e-4
-0.946, -5.184e-4
-0.947, -5.187e-4
-0.948, -5.188e-4
-0.949, -5.191e-4
-0.950, -5.194e-4
-0.951, -5.196e-4
-0.952, -5.195e-4
-0.953, -5.194e-4
-0.954, -5.192e-4
-0.955, -5.189e-4
-0.956, -5.187e-4
-0.957, -5.181e-4
-0.958, -5.175e-4
-0.959, -5.169e-4
-0.960, -5.162e-4
-0.961, -5.154e-4
-0.962, -5.145e-4
-0.963, -5.133e-4
-0.964, -5.121e-4
-0.965, -5.110e-4
-0.966, -5.097e-4
-0.967, -5.083e-4
-0.968, -5.067e-4
-0.969, -5.050e-4
-0.970, -5.034e-4
-0.971, -5.017e-4
-0.972, -4.998e-4
-0.973, -4.979e-4
-0.974, -4.959e-4
-0.975, -4.938e-4
-0.976, -4.917e-4
-0.977, -4.894e-4
-0.978, -4.871e-4
-0.979, -4.846e-4
-0.980, -4.822e-4
-0.981, -4.798e-4
-0.982, -4.772e-4
-0.983, -4.746e-4
-0.984, -4.720e-4
-0.985, -4.694e-4
-0.986, -4.668e-4
-0.987, -4.640e-4
-0.988, -4.612e-4
-0.989, -4.585e-4
-0.990, -4.558e-4
-0.991, -4.531e-4
-0.992, -4.503e-4
-0.993, -4.475e-4
-0.994, -4.447e-4
-0.995, -4.420e-4
-0.996, -4.392e-4
-0.997, -4.365e-4
-0.998, -4.337e-4
-0.999, -4.309e-4
-1.000, -4.284e-4
-1.001, -4.257e-4
-1.002, -4.231e-4
-1.003, -4.204e-4
-1.004, -4.179e-4
-1.005, -4.153e-4
-1.006, -4.128e-4
-1.007, -4.103e-4
-1.008, -4.079e-4
-1.009, -4.055e-4
-1.010, -4.031e-4
-1.011, -4.007e-4
-1.012, -3.984e-4
-1.013, -3.961e-4
-1.014, -3.938e-4
-1.015, -3.916e-4
-1.016, -3.894e-4
-1.017, -3.873e-4
-1.018, -3.851e-4
-1.019, -3.830e-4
-1.020, -3.810e-4
-1.021, -3.790e-4
-1.022, -3.769e-4
-1.023, -3.749e-4
-1.024, -3.730e-4
-1.025, -3.711e-4
-1.026, -3.693e-4
-1.027, -3.674e-4
-1.028, -3.655e-4
-1.029, -3.637e-4
-1.030, -3.620e-4
-1.031, -3.602e-4
-1.032, -3.585e-4
-1.033, -3.568e-4
-1.034, -3.551e-4
-1.035, -3.535e-4
-1.036, -3.519e-4
-1.037, -3.503e-4
-1.038, -3.487e-4
-1.039, -3.471e-4
-1.040, -3.456e-4
-1.041, -3.441e-4
-1.042, -3.426e-4
-1.043, -3.411e-4
-1.044, -3.397e-4
-1.045, -3.383e-4
-1.046, -3.368e-4
-1.047, -3.355e-4
-1.048, -3.341e-4
-1.049, -3.327e-4
-1.050, -3.314e-4
-1.051, -3.301e-4
-1.052, -3.288e-4
-1.053, -3.275e-4
-1.054, -3.262e-4
-1.055, -3.250e-4
-1.056, -3.238e-4
-1.057, -3.225e-4
-1.058, -3.214e-4
-1.059, -3.202e-4
-1.060, -3.190e-4
-1.061, -3.179e-4
-1.062, -3.167e-4
-1.063, -3.156e-4
-1.064, -3.145e-4
-1.065, -3.133e-4
-1.066, -3.122e-4
-1.067, -3.112e-4
-1.068, -3.101e-4
-1.069, -3.090e-4
-1.070, -3.080e-4
-1.071, -3.069e-4
-1.072, -3.059e-4
-1.073, -3.049e-4
-1.074, -3.039e-4
-1.075, -3.029e-4
-1.076, -3.020e-4
-1.077, -3.010e-4
-1.078, -3.000e-4
-1.079, -2.991e-4
-1.080, -2.981e-4
-1.081, -2.972e-4
-1.082, -2.963e-4
-1.083, -2.954e-4
-1.084, -2.945e-4
-1.085, -2.936e-4
-1.086, -2.927e-4
-1.087, -2.918e-4
-1.088, -2.910e-4
-1.089, -2.901e-4
-1.090, -2.893e-4
-1.091, -2.885e-4
-1.092, -2.876e-4
-1.093, -2.868e-4
-1.094, -2.860e-4
-1.095, -2.852e-4
-1.096, -2.844e-4
-1.097, -2.836e-4
-1.098, -2.829e-4
-1.099, -2.821e-4
-1.100, -2.813e-4
-1.101, -2.805e-4
-1.102, -2.798e-4
-1.103, -2.791e-4
-1.104, -2.783e-4
-1.105, -2.776e-4
-1.106, -2.769e-4
-1.107, -2.761e-4
-1.108, -2.754e-4
-1.109, -2.747e-4
-1.110, -2.740e-4
-1.111, -2.733e-4
-1.112, -2.727e-4
-1.113, -2.720e-4
-1.114, -2.713e-4
-1.115, -2.706e-4
-1.116, -2.700e-4
-1.117, -2.693e-4
-1.118, -2.687e-4
-1.119, -2.680e-4
-1.120, -2.674e-4
-1.121, -2.667e-4
-1.122, -2.661e-4
-1.123, -2.655e-4
-1.124, -2.649e-4
-1.125, -2.642e-4
-1.126, -2.636e-4
-1.127, -2.630e-4
-1.128, -2.625e-4
-1.129, -2.618e-4
-1.130, -2.612e-4
-1.131, -2.607e-4
-1.132, -2.601e-4
-1.133, -2.595e-4
-1.134, -2.589e-4
-1.135, -2.583e-4
-1.136, -2.578e-4
-1.137, -2.573e-4
-1.138, -2.567e-4
-1.139, -2.561e-4
-1.140, -2.556e-4
-1.141, -2.550e-4
-1.142, -2.545e-4
-1.143, -2.540e-4
-1.144, -2.534e-4
-1.145, -2.529e-4
-1.146, -2.524e-4
-1.147, -2.519e-4
-1.148, -2.514e-4
-1.149, -2.509e-4
-1.150, -2.504e-4
-1.151, -2.499e-4
-1.152, -2.493e-4
-1.153, -2.489e-4
-1.154, -2.484e-4
-1.155, -2.479e-4
-1.156, -2.474e-4
-1.157, -2.469e-4
-1.158, -2.464e-4
-1.159, -2.460e-4
-1.160, -2.455e-4
-1.161, -2.450e-4
-1.162, -2.446e-4
-1.163, -2.441e-4
-1.164, -2.436e-4
-1.165, -2.432e-4
-1.166, -2.427e-4
-1.167, -2.423e-4
-1.168, -2.418e-4
-1.169, -2.414e-4
-1.170, -2.409e-4
-1.171, -2.405e-4
-1.172, -2.401e-4
-1.173, -2.396e-4
-1.174, -2.392e-4
-1.175, -2.388e-4
-1.176, -2.384e-4
-1.177, -2.380e-4
-1.178, -2.376e-4
-1.179, -2.371e-4
-1.180, -2.367e-4
-1.181, -2.363e-4
-1.182, -2.359e-4
-1.183, -2.355e-4
-1.184, -2.351e-4
-1.185, -2.347e-4
-1.186, -2.343e-4
-1.187, -2.340e-4
-1.188, -2.336e-4
-1.189, -2.332e-4
-1.190, -2.328e-4
-1.191, -2.324e-4
-1.192, -2.320e-4
-1.193, -2.316e-4
-1.194, -2.313e-4
-1.195, -2.309e-4
-1.196, -2.305e-4
-1.197, -2.302e-4
-1.198, -2.298e-4
-1.199, -2.294e-4
-1.200, -2.290e-4
-1.199, -2.283e-4
-1.198, -2.277e-4
-1.197, -2.272e-4
-1.196, -2.267e-4
-1.195, -2.262e-4
-1.194, -2.257e-4
-1.193, -2.253e-4
-1.192, -2.248e-4
-1.191, -2.244e-4
-1.190, -2.240e-4
-1.189, -2.236e-4
-1.188, -2.232e-4
-1.187, -2.228e-4
-1.186, -2.224e-4
-1.185, -2.220e-4
-1.184, -2.216e-4
-1.183, -2.213e-4
-1.182, -2.209e-4
-1.181, -2.205e-4
-1.180, -2.201e-4
-1.179, -2.198e-4
-1.178, -2.194e-4
-1.177, -2.191e-4
-1.176, -2.187e-4
-1.175, -2.184e-4
-1.174, -2.180e-4
-1.173, -2.177e-4
-1.172, -2.173e-4
-1.171, -2.170e-4
-1.170, -2.166e-4
-1.169, -2.163e-4
-1.168, -2.160e-4
-1.167, -2.157e-4
-1.166, -2.153e-4
-1.165, -2.150e-4
-1.164, -2.147e-4
-1.163, -2.144e-4
-1.162, -2.141e-4
-1.161, -2.138e-4
-1.160, -2.135e-4
-1.159, -2.132e-4
-1.158, -2.128e-4
-1.157, -2.125e-4
-1.156, -2.122e-4
-1.155, -2.119e-4
-1.154, -2.117e-4
-1.153, -2.114e-4
-1.152, -2.111e-4
-1.151, -2.107e-4
-1.150, -2.105e-4
-1.149, -2.102e-4
-1.148, -2.099e-4
-1.147, -2.096e-4
-1.146, -2.093e-4
-1.145, -2.090e-4
-1.144, -2.087e-4
-1.143, -2.085e-4
-1.142, -2.082e-4
-1.141, -2.079e-4
-1.140, -2.076e-4
-1.139, -2.073e-4
-1.138, -2.071e-4
-1.137, -2.068e-4
-1.136, -2.065e-4
-1.135, -2.062e-4
-1.134, -2.060e-4
-1.133, -2.057e-4
-1.132, -2.055e-4
-1.131, -2.052e-4
-1.130, -2.049e-4
-1.129, -2.047e-4
-1.128, -2.044e-4
-1.127, -2.042e-4
-1.126, -2.039e-4
-1.125, -2.036e-4
-1.124, -2.034e-4
-1.123, -2.031e-4
-1.122, -2.029e-4
-1.121, -2.026e-4
-1.120, -2.024e-4
-1.119, -2.021e-4
-1.118, -2.019e-4
-1.117, -2.017e-4
-1.116, -2.014e-4
-1.115, -2.011e-4
-1.114, -2.009e-4
-1.113, -2.007e-4
-1.112, -2.004e-4
-1.111, -2.002e-4
-1.110, -1.999e-4
-1.109, -1.997e-4
-1.108, -1.994e-4
-1.107, -1.992e-4
-1.106, -1.989e-4
-1.105, -1.987e-4
-1.104, -1.985e-4
-1.103, -1.982e-4
-1.102, -1.980e-4
-1.101, -1.977e-4
-1.100, -1.975e-4
-1.099, -1.973e-4
-1.098, -1.970e-4
-1.097, -1.968e-4
-1.096, -1.966e-4
-1.095, -1.963e-4
-1.094, -1.961e-4
-1.093, -1.959e-4
-1.092, -1.957e-4
-1.091, -1.954e-4
-1.090, -1.952e-4
-1.089, -1.950e-4
-1.088, -1.947e-4
-1.087, -1.945e-4
-1.086, -1.943e-4
-1.085, -1.941e-4
-1.084, -1.938e-4
-1.083, -1.936e-4
-1.082, -1.934e-4
-1.081, -1.932e-4
-1.080, -1.929e-4
-1.079, -1.927e-4
-1.078, -1.925e-4
-1.077, -1.923e-4
-1.076, -1.920e-4
-1.075, -1.918e-4
-1.074, -1.916e-4
-1.073, -1.914e-4
-1.072, -1.912e-4
-1.071, -1.910e-4
-1.070, -1.908e-4
-1.069, -1.906e-4
-1.068, -1.903e-4
-1.067, -1.901e-4
-1.066, -1.899e-4
-1.065, -1.897e-4
-1.064, -1.895e-4
-1.063, -1.892e-4
-1.062, -1.890e-4
-1.061, -1.888e-4
-1.060, -1.886e-4
-1.059, -1.884e-4
-1.058, -1.882e-4
-1.057, -1.879e-4
-1.056, -1.877e-4
-1.055, -1.875e-4
-1.054, -1.872e-4
-1.053, -1.870e-4
-1.052, -1.868e-4
-1.051, -1.866e-4
-1.050, -1.863e-4
-1.049, -1.861e-4
-1.048, -1.859e-4
-1.047, -1.857e-4
-1.046, -1.854e-4
-1.045, -1.852e-4
-1.044, -1.850e-4
-1.043, -1.847e-4
-1.042, -1.845e-4
-1.041, -1.842e-4
-1.040, -1.840e-4
-1.039, -1.838e-4
-1.038, -1.836e-4
-1.037, -1.833e-4
-1.036, -1.830e-4
-1.035, -1.828e-4
-1.034, -1.826e-4
-1.033, -1.823e-4
-1.032, -1.821e-4
-1.031, -1.819e-4
-1.030, -1.816e-4
-1.029, -1.814e-4
-1.028, -1.811e-4
-1.027, -1.809e-4
-1.026, -1.806e-4
-1.025, -1.803e-4
-1.024, -1.801e-4
-1.023, -1.798e-4
-1.022, -1.795e-4
-1.021, -1.793e-4
-1.020, -1.790e-4
-1.019, -1.788e-4
-1.018, -1.785e-4
-1.017, -1.782e-4
-1.016, -1.779e-4
-1.015, -1.776e-4
-1.014, -1.774e-4
-1.013, -1.771e-4
-1.012, -1.768e-4
-1.011, -1.765e-4
-1.010, -1.762e-4
-1.009, -1.759e-4
-1.008, -1.756e-4
-1.007, -1.753e-4
-1.006, -1.750e-4
-1.005, -1.746e-4
-1.004, -1.743e-4
-1.003, -1.740e-4
-1.002, -1.736e-4
-1.001, -1.733e-4
-1.000, -1.730e-4
-0.999, -1.726e-4
-0.998, -1.723e-4
-0.997, -1.719e-4
-0.996, -1.715e-4
-0.995, -1.712e-4
-0.994, -1.708e-4
-0.993, -1.704e-4
-0.992, -1.700e-4
-0.991, -1.696e-4
-0.990, -1.692e-4
-0.989, -1.688e-4
-0.988, -1.683e-4
-0.987, -1.678e-4
-0.986, -1.674e-4
-0.985, -1.670e-4
-0.984, -1.665e-4
-0.983, -1.660e-4
-0.982, -1.655e-4
-0.981, -1.650e-4
-0.980, -1.646e-4
-0.979, -1.640e-4
-0.978, -1.635e-4
-0.977, -1.629e-4
-0.976, -1.624e-4
-0.975, -1.619e-4
-0.974, -1.613e-4
-0.973, -1.607e-4
-0.972, -1.600e-4
-0.971, -1.594e-4
-0.970, -1.588e-4
-0.969, -1.582e-4
-0.968, -1.575e-4
-0.967, -1.568e-4
-0.966, -1.562e-4
-0.965, -1.555e-4
-0.964, -1.548e-4
-0.963, -1.540e-4
-0.962, -1.532e-4
-0.961, -1.524e-4
-0.960, -1.517e-4
-0.959, -1.509e-4
-0.958, -1.500e-4
-0.957, -1.492e-4
-0.956, -1.483e-4
-0.955, -1.475e-4
-0.954, -1.466e-4
-0.953, -1.456e-4
-0.952, -1.447e-4
-0.951, -1.437e-4
-0.950, -1.427e-4
-0.949, -1.418e-4
-0.948, -1.407e-4
-0.947, -1.397e-4
-0.946, -1.386e-4
-0.945, -1.376e-4
-0.944, -1.365e-4
-0.943, -1.354e-4
-0.942, -1.341e-4
-0.941, -1.329e-4
-0.940, -1.318e-4
-0.939, -1.306e-4
-0.938, -1.292e-4
-0.937, -1.279e-4
-0.936, -1.266e-4
-0.935, -1.254e-4
-0.934, -1.240e-4
-0.933, -1.226e-4
-0.932, -1.211e-4
-0.931, -1.196e-4
-0.930, -1.183e-4
-0.929, -1.168e-4
-0.928, -1.153e-4
-0.927, -1.137e-4
-0.926, -1.120e-4
-0.925, -1.105e-4
-0.924, -1.090e-4
-0.923, -1.072e-4
-0.922, -1.055e-4
-0.921, -1.036e-4
-0.920, -1.019e-4
-0.919, -1.002e-4
-0.918, -9.837e-5
-0.917, -9.646e-5
-0.916, -9.457e-5
-0.915, -9.275e-5
-0.914, -9.095e-5
-0.913, -8.889e-5
-0.912, -8.685e-5
-0.911, -8.484e-5
-0.910, -8.286e-5
-0.909, -8.083e-5
-0.908, -7.873e-5
-0.907, -7.648e-5
-0.906, -7.432e-5
-0.905, -7.222e-5
-0.904, -7.009e-5
-0.903, -6.778e-5
-0.902, -6.547e-5
-0.901, -6.319e-5
-0.900, -6.091e-5
-0.899, -5.868e-5
-0.898, -5.625e-5
-0.897, -5.370e-5
-0.896, -5.142e-5
-0.895, -4.914e-5
-0.894, -4.664e-5
-0.893, -4.409e-5
-0.892, -4.147e-5
-0.891, -3.886e-5
-0.890, -3.639e-5
-0.889, -3.390e-5
-0.888, -3.119e-5
-0.887, -2.839e-5
-0.886, -2.575e-5
-0.885, -2.316e-5
-0.884, -2.049e-5
-0.883, -1.763e-5
-0.882, -1.477e-5
-0.881, -1.194e-5
-0.880, -9.203e-6
-0.879, -6.436e-6
-0.878, -3.485e-6
-0.877, -5.050e-7
-0.876, 2.415e-6
-0.875, 5.243e-6
-0.874, 8.102e-6
-0.873, 1.111e-5
-0.872, 1.421e-5
-0.871, 1.726e-5
-0.870, 2.039e-5
-0.869, 2.337e-5
-0.868, 2.650e-5
-0.867, 2.966e-5
-0.866, 3.283e-5
-0.865, 3.584e-5
-0.864, 3.885e-5
-0.863, 4.201e-5
-0.862, 4.533e-5
-0.861, 4.852e-5
-0.860, 5.165e-5
-0.859, 5.479e-5
-0.858, 5.807e-5
-0.857, 6.145e-5
-0.856, 6.476e-5
-0.855, 6.795e-5
-0.854, 7.112e-5
-0.853, 7.446e-5
-0.852, 7.790e-5
-0.851, 8.124e-5
-0.850, 8.444e-5
-0.849, 8.772e-5
-0.848, 9.113e-5
-0.847, 9.457e-5
-0.846, 9.803e-5
-0.845, 1.012e-4
-0.844, 1.044e-4
-0.843, 1.079e-4
-0.842, 1.114e-4
-0.841, 1.148e-4
-0.840, 1.182e-4
-0.839, 1.215e-4
-0.838, 1.249e-4
-0.837, 1.285e-4
-0.836, 1.320e-4
-0.835, 1.354e-4
-0.834, 1.387e-4
-0.833, 1.422e-4
-0.832, 1.459e-4
-0.831, 1.493e-4
-0.830, 1.528e-4
-0.829, 1.561e-4
-0.828, 1.596e-4
-0.827, 1.632e-4
-0.826, 1.668e-4
-0.825, 1.701e-4
-0.824, 1.735e-4
-0.823, 1.770e-4
-0.822, 1.805e-4
-0.821, 1.841e-4
-0.820, 1.874e-4
-0.819, 1.904e-4
-0.818, 1.937e-4
-0.817, 1.974e-4
-0.816, 2.008e-4
-0.815, 2.041e-4
-0.814, 2.076e-4
-0.813, 2.110e-4
-0.812, 2.145e-4
-0.811, 2.180e-4
-0.810, 2.213e-4
-0.809, 2.246e-4
-0.808, 2.280e-4
-0.807, 2.316e-4
-0.806, 2.350e-4
-0.805, 2.382e-4
-0.804, 2.414e-4
-0.803, 2.448e-4
-0.802, 2.482e-4
-0.801, 2.516e-4
-0.800, 2.547e-4
-0.799, 2.579e-4
-0.798, 2.612e-4
-0.797, 2.645e-4
-0.796, 2.678e-4
-0.795, 2.709e-4
-0.794, 2.740e-4
-0.793, 2.770e-4
-0.792, 2.803e-4
-0.791, 2.835e-4
-0.790, 2.865e-4
-0.789, 2.894e-4
-0.788, 2.926e-4
-0.787, 2.957e-4
-0.786, 2.987e-4
-0.785, 3.016e-4
-0.784, 3.044e-4
-0.783, 3.074e-4
-0.782, 3.104e-4
-0.781, 3.133e-4
-0.780, 3.161e-4
-0.779, 3.188e-4
-0.778, 3.216e-4
-0.777, 3.245e-4
-0.776, 3.272e-4
-0.775, 3.298e-4
-0.774, 3.324e-4
-0.773, 3.350e-4
-0.772, 3.377e-4
-0.771, 3.402e-4
-0.770, 3.426e-4
-0.769, 3.450e-4
-0.768, 3.474e-4
-0.767, 3.500e-4
-0.766, 3.524e-4
-0.765, 3.545e-4
-0.764, 3.566e-4
-0.763, 3.588e-4
-0.762, 3.610e-4
-0.761, 3.631e-4
-0.760, 3.650e-4
-0.759, 3.669e-4
-0.758, 3.688e-4
-0.757, 3.707e-4
-0.756, 3.726e-4
-0.755, 3.742e-4
-0.754, 3.758e-4
-0.753, 3.775e-4
-0.752, 3.790e-4
-0.751, 3.805e-4
-0.750, 3.819e-4
-0.749, 3.832e-4
-0.748, 3.845e-4
-0.747, 3.858e-4
-0.746, 3.869e-4
-0.745, 3.878e-4
-0.744, 3.887e-4
-0.743, 3.897e-4
-0.742, 3.904e-4
-0.741, 3.912e-4
-0.740, 3.918e-4
-0.739, 3.923e-4
-0.738, 3.928e-4
-0.737, 3.934e-4
-0.736, 3.938e-4
-0.735, 3.939e-4
-0.734, 3.940e-4
-0.733, 3.941e-4
-0.732, 3.942e-4
-0.731, 3.941e-4
-0.730, 3.939e-4
-0.729, 3.935e-4
-0.728, 3.932e-4
-0.727, 3.928e-4
-0.726, 3.922e-4
-0.725, 3.915e-4
-0.724, 3.906e-4
-0.723, 3.898e-4
-0.722, 3.889e-4
-0.721, 3.879e-4
-0.720, 3.866e-4
-0.719, 3.853e-4
-0.718, 3.841e-4
-0.717, 3.828e-4
-0.716, 3.814e-4
-0.715, 3.796e-4
-0.714, 3.779e-4
-0.713, 3.762e-4
-0.712, 3.744e-4
-0.711, 3.725e-4
-0.710, 3.704e-4
-0.709, 3.682e-4
-0.708, 3.662e-4
-0.707, 3.640e-4
-0.706, 3.617e-4
-0.705, 3.593e-4
-0.704, 3.569e-4
-0.703, 3.544e-4
-0.702, 3.520e-4
-0.701, 3.495e-4
-0.700, 3.469e-4
-0.699, 3.442e-4
-0.698, 3.417e-4
-0.697, 3.391e-4
-0.696, 3.364e-4
-0.695, 3.337e-4
-0.694, 3.309e-4
-0.693, 3.283e-4
-0.692, 3.256e-4
-0.691, 3.229e-4
-0.690, 3.201e-4
-0.689, 3.174e-4
-0.688, 3.148e-4
-0.687, 3.122e-4
-0.686, 3.096e-4
-0.685, 3.069e-4
-0.684, 3.043e-4
-0.683, 3.017e-4
-0.682, 2.992e-4
-0.681, 2.967e-4
-0.680, 2.942e-4
-0.679, 2.917e-4
-0.678, 2.893e-4
-0.677, 2.869e-4
-0.676, 2.845e-4
-0.675, 2.822e-4
-0.674, 2.798e-4
-0.673, 2.776e-4
-0.672, 2.753e-4
-0.671, 2.731e-4
-0.670, 2.709e-4
-0.669, 2.687e-4
-0.668, 2.666e-4
-0.667, 2.645e-4
-0.666, 2.625e-4
-0.665, 2.605e-4
-0.664, 2.585e-4
-0.663, 2.565e-4
-0.662, 2.546e-4
-0.661, 2.527e-4
-0.660, 2.508e-4
-0.659, 2.489e-4
-0.658, 2.471e-4
-0.657, 2.453e-4
-0.656, 2.435e-4
-0.655, 2.418e-4
-0.654, 2.401e-4
-0.653, 2.384e-4
-0.652, 2.367e-4
-0.651, 2.351e-4
-0.650, 2.335e-4
-0.649, 2.318e-4
-0.648, 2.303e-4
-0.647, 2.287e-4
-0.646, 2.272e-4
-0.645, 2.257e-4
-0.644, 2.242e-4
-0.643, 2.228e-4
-0.642, 2.214e-4
-0.641, 2.200e-4
-0.640, 2.185e-4
-0.639, 2.171e-4
-0.638, 2.158e-4
-0.637, 2.145e-4
-0.636, 2.131e-4
-0.635, 2.118e-4
-0.634, 2.105e-4
-0.633, 2.093e-4
-0.632, 2.080e-4
-0.631, 2.068e-4
-0.630, 2.055e-4
-0.629, 2.043e-4
-0.628, 2.031e-4
-0.627, 2.020e-4
-0.626, 2.008e-4
-0.625, 1.997e-4
-0.624, 1.985e-4
-0.623, 1.974e-4
-0.622, 1.963e-4
-0.621, 1.952e-4
-0.620, 1.941e-4
-0.619, 1.931e-4
-0.618, 1.920e-4
-0.617, 1.910e-4
-0.616, 1.900e-4
-0.615, 1.889e-4
-0.614, 1.879e-4
-0.613, 1.870e-4
-0.612, 1.860e-4
-0.611, 1.850e-4
-0.610, 1.840e-4
-0.609, 1.831e-4
-0.608, 1.822e-4
-0.607, 1.812e-4
-0.606, 1.803e-4
-0.605, 1.794e-4
-0.604, 1.785e-4
-0.603, 1.776e-4
-0.602, 1.768e-4
-0.601, 1.759e-4
-0.600, 1.750e-4
-0.599, 1.742e-4
-0.598, 1.733e-4
-0.597, 1.725e-4
-0.596, 1.717e-4
-0.595, 1.709e-4
-0.594, 1.701e-4
-0.593, 1.693e-4
-0.592, 1.685e-4
-0.591, 1.677e-4
-0.590, 1.669e-4
-0.589, 1.662e-4
-0.588, 1.654e-4
-0.587, 1.646e-4
-0.586, 1.639e-4
-0.585, 1.632e-4
-0.584, 1.624e-4
-0.583, 1.617e-4
-0.582, 1.610e-4
-0.581, 1.603e-4
-0.580, 1.596e-4
-0.579, 1.589e-4
-0.578, 1.582e-4
-0.577, 1.576e-4
-0.576, 1.569e-4
-0.575, 1.562e-4
-0.574, 1.555e-4
-0.573, 1.548e-4
-0.572, 1.542e-4
-0.571, 1.536e-4
-0.570, 1.529e-4
-0.569, 1.523e-4
-0.568, 1.517e-4
-0.567, 1.510e-4
-0.566, 1.504e-4
-0.565, 1.498e-4
-0.564, 1.492e-4
-0.563, 1.485e-4
-0.562, 1.479e-4
-0.561, 1.474e-4
-0.560, 1.468e-4
-0.559, 1.462e-4
-0.558, 1.456e-4
-0.557, 1.450e-4
-0.556, 1.444e-4
-0.555, 1.439e-4
-0.554, 1.433e-4
-0.553, 1.427e-4
-0.552, 1.422e-4
-0.551, 1.416e-4
-0.550, 1.411e-4
-0.549, 1.406e-4
-0.548, 1.400e-4
-0.547, 1.395e-4
-0.546, 1.389e-4
-0.545, 1.384e-4
-0.544, 1.379e-4
-0.543, 1.374e-4
-0.542, 1.369e-4
-0.541, 1.364e-4
-0.540, 1.359e-4
-0.539, 1.354e-4
-0.538, 1.349e-4
-0.537, 1.344e-4
-0.536, 1.339e-4
-0.535, 1.334e-4
-0.534, 1.329e-4
-0.533, 1.324e-4
-0.532, 1.319e-4
-0.531, 1.315e-4
-0.530, 1.310e-4
-0.529, 1.305e-4
-0.528, 1.301e-4
-0.527, 1.296e-4
-0.526, 1.292e-4
-0.525, 1.287e-4
-0.524, 1.282e-4
-0.523, 1.278e-4
-0.522, 1.274e-4
-0.521, 1.269e-4
-0.520, 1.265e-4
-0.519, 1.260e-4
-0.518, 1.256e-4
-0.517, 1.252e-4
-0.516, 1.248e-4
-0.515, 1.243e-4
-0.514, 1.239e-4
-0.513, 1.235e-4
-0.512, 1.231e-4
-0.511, 1.227e-4
-0.510, 1.222e-4
-0.509, 1.218e-4
-0.508, 1.215e-4
-0.507, 1.210e-4
-0.506, 1.206e-4
-0.505, 1.202e-4
-0.504, 1.198e-4
-0.503, 1.194e-4
-0.502, 1.190e-4
-0.501, 1.187e-4
-0.500, 1.182e-4
-0.501, 1.176e-4
-0.502, 1.171e-4
-0.503, 1.167e-4
-0.504, 1.163e-4
-0.505, 1.158e-4
-0.506, 1.154e-4
-0.507, 1.150e-4
-0.508, 1.146e-4
-0.509, 1.142e-4
-0.510, 1.138e-4
-0.511, 1.134e-4
-0.512, 1.130e-4
-0.513, 1.126e-4
-0.514, 1.122e-4
-0.515, 1.118e-4
-0.516, 1.115e-4
-0.517, 1.111e-4
-0.518, 1.107e-4
-0.519, 1.104e-4
-0.520, 1.100e-4
-0.521, 1.096e-4
-0.522, 1.093e-4
-0.523, 1.089e-4
-0.524, 1.086e-4
-0.525, 1.082e-4
-0.526, 1.078e-4
-0.527, 1.075e-4
-0.528, 1.072e-4
-0.529, 1.068e-4
-0.530, 1.065e-4
-0.531, 1.061e-4
-0.532, 1.058e-4
-0.533, 1.054e-4
-0.534, 1.051e-4
-0.535, 1.048e-4
-0.536, 1.045e-4
-0.537, 1.041e-4
-0.538, 1.038e-4
-0.539, 1.035e-4
-0.540, 1.031e-4
-0.541, 1.028e-4
-0.542, 1.025e-4
-0.543, 1.022e-4
-0.544, 1.019e-4
-0.545, 1.016e-4
-0.546, 1.013e-4
-0.547, 1.009e-4
-0.548, 1.006e-4
-0.549, 1.003e-4
-0.550, 1.000e-4
-0.551, 9.971e-5
-0.552, 9.940e-5
-0.553, 9.910e-5
-0.554, 9.882e-5
-0.555, 9.852e-5
-0.556, 9.822e-5
-0.557, 9.791e-5
-0.558, 9.761e-5
-0.559, 9.733e-5
-0.560, 9.703e-5
-0.561, 9.673e-5
-0.562, 9.645e-5
-0.563, 9.615e-5
-0.564, 9.587e-5
-0.565, 9.557e-5
-0.566, 9.530e-5
-0.567, 9.502e-5
-0.568, 9.472e-5
-0.569, 9.444e-5
-0.570, 9.417e-5
-0.571, 9.390e-5
-0.572, 9.362e-5
-0.573, 9.332e-5
-0.574, 9.308e-5
-0.575, 9.280e-5
-0.576, 9.253e-5
-0.577, 9.225e-5
-0.578, 9.198e-5
-0.579, 9.171e-5
-0.580, 9.146e-5
-0.581, 9.119e-5
-0.582, 9.092e-5
-0.583, 9.064e-5
-0.584, 9.037e-5
-0.585, 9.013e-5
-0.586, 8.985e-5
-0.587, 8.958e-5
-0.588, 8.933e-5
-0.589, 8.909e-5
-0.590, 8.882e-5
-0.591, 8.857e-5
-0.592, 8.830e-5
-0.593, 8.806e-5
-0.594, 8.778e-5
-0.595, 8.757e-5
-0.596, 8.730e-5
-0.597, 8.705e-5
-0.598, 8.678e-5
-0.599, 8.654e-5
-0.600, 8.629e-5
-0.601, 8.605e-5
-0.602, 8.578e-5
-0.603, 8.553e-5
-0.604, 8.529e-5
-0.605, 8.505e-5
-0.606, 8.480e-5
-0.607, 8.456e-5
-0.608, 8.432e-5
-0.609, 8.407e-5
-0.610, 8.383e-5
-0.611, 8.359e-5
-0.612, 8.334e-5
-0.613, 8.310e-5
-0.614, 8.289e-5
-0.615, 8.261e-5
-0.616, 8.237e-5
-0.617, 8.213e-5
-0.618, 8.191e-5
-0.619, 8.167e-5
-0.620, 8.143e-5
-0.621, 8.118e-5
-0.622, 8.094e-5
-0.623, 8.070e-5
-0.624, 8.045e-5
-0.625, 8.021e-5
-0.626, 7.997e-5
-0.627, 7.972e-5
-0.628, 7.948e-5
-0.629, 7.924e-5
-0.630, 7.899e-5
-0.631, 7.875e-5
-0.632, 7.851e-5
-0.633, 7.826e-5
-0.634, 7.802e-5
-0.635, 7.778e-5
-0.636, 7.753e-5
-0.637, 7.729e-5
-0.638, 7.702e-5
-0.639, 7.680e-5
-0.640, 7.656e-5
-0.641, 7.629e-5
-0.642, 7.604e-5
-0.643, 7.580e-5
-0.644, 7.556e-5
-0.645, 7.528e-5
-0.646, 7.504e-5
-0.647, 7.477e-5
-0.648, 7.449e-5
-0.649, 7.425e-5
-0.650, 7.401e-5
-0.651, 7.373e-5
-0.652, 7.346e-5
-0.653, 7.319e-5
-0.654, 7.291e-5
-0.655, 7.264e-5
-0.656, 7.236e-5
-0.657, 7.209e-5
-0.658, 7.182e-5
-0.659, 7.154e-5
-0.660, 7.124e-5
-0.661, 7.097e-5
-0.662, 7.066e-5
-0.663, 7.039e-5
-0.664, 7.008e-5
-0.665, 6.978e-5
-0.666, 6.944e-5
-0.667, 6.917e-5
-0.668, 6.887e-5
-0.669, 6.856e-5
-0.670, 6.826e-5
-0.671, 6.792e-5
-0.672, 6.762e-5
-0.673, 6.729e-5
-0.674, 6.695e-5
-0.675, 6.662e-5
-0.676, 6.628e-5
-0.677, 6.592e-5
-0.678, 6.558e-5
-0.679, 6.525e-5
-0.680, 6.485e-5
-0.681, 6.449e-5
-0.682, 6.412e-5
-0.683, 6.376e-5
-0.684, 6.336e-5
-0.685, 6.297e-5
-0.686, 6.254e-5
-0.687, 6.215e-5
-0.688, 6.178e-5
-0.689, 6.135e-5
-0.690, 6.087e-5
-0.691, 6.047e-5
-0.692, 6.005e-5
-0.693, 5.956e-5
-0.694, 5.910e-5
-0.695, 5.862e-5
-0.696, 5.813e-5
-0.697, 5.764e-5
-0.698, 5.716e-5
-0.699, 5.664e-5
-0.700, 5.609e-5
-0.701, 5.555e-5
-0.702, 5.503e-5
-0.703, 5.448e-5
-0.704, 5.387e-5
-0.705, 5.330e-5
-0.706, 5.266e-5
-0.707, 5.208e-5
-0.708, 5.150e-5
-0.709, 5.086e-5
-0.710, 5.019e-5
-0.711, 4.949e-5
-0.712, 4.882e-5
-0.713, 4.816e-5
-0.714, 4.746e-5
-0.715, 4.673e-5
-0.716, 4.594e-5
-0.717, 4.514e-5
-0.718, 4.441e-5
-0.719, 4.362e-5
-0.720, 4.280e-5
-0.721, 4.195e-5
-0.722, 4.110e-5
-0.723, 4.031e-5
-0.724, 3.943e-5
-0.725, 3.845e-5
-0.726, 3.751e-5
-0.727, 3.660e-5
-0.728, 3.572e-5
-0.729, 3.474e-5
-0.730, 3.362e-5
-0.731, 3.258e-5
-0.732, 3.158e-5
-0.733, 3.055e-5
-0.734, 2.948e-5
-0.735, 2.833e-5
-0.736, 2.714e-5
-0.737, 2.602e-5
-0.738, 2.486e-5
-0.739, 2.364e-5
-0.740, 2.237e-5
-0.741, 2.106e-5
-0.742, 1.984e-5
-0.743, 1.866e-5
-0.744, 1.729e-5
-0.745, 1.586e-5
-0.746, 1.440e-5
-0.747, 1.303e-5
-0.748, 1.166e-5
-0.749, 1.020e-5
-0.750, 8.649e-6
-0.751, 7.007e-6
-0.752, 5.517e-6
-0.753, 4.027e-6
-0.754, 2.384e-6
-0.755, 6.811e-7
-0.756, -1.083e-6
-0.757, -2.756e-6
-0.758, -4.367e-6
-0.759, -6.101e-6
-0.760, -7.956e-6
-0.761, -9.811e-6
-0.762, -1.158e-5
-0.763, -1.340e-5
-0.764, -1.529e-5
-0.765, -1.729e-5
-0.766, -1.930e-5
-0.767, -2.128e-5
-0.768, -2.331e-5
-0.769, -2.535e-5
-0.770, -2.751e-5
-0.771, -2.970e-5
-0.772, -3.177e-5
-0.773, -3.384e-5
-0.774, -3.597e-5
-0.775, -3.822e-5
-0.776, -4.059e-5
-0.777, -4.284e-5
-0.778, -4.506e-5
-0.779, -4.731e-5
-0.780, -4.977e-5
-0.781, -5.230e-5
-0.782, -5.464e-5
-0.783, -5.701e-5
-0.784, -5.945e-5
-0.785, -6.203e-5
-0.786, -6.468e-5
-0.787, -6.717e-5
-0.788, -6.960e-5
-0.789, -7.222e-5
-0.790, -7.490e-5
-0.791, -7.766e-5
-0.792, -8.031e-5
-0.793, -8.289e-5
-0.794, -8.539e-5
-0.795, -8.825e-5
-0.796, -9.114e-5
-0.797, -9.390e-5
-0.798, -9.658e-5
-0.799, -9.944e-5
-0.800, -1.024e-4
-0.801, -1.053e-4
-0.802, -1.082e-4
-0.803, -1.111e-4
-0.804, -1.140e-4
-0.805, -1.171e-4
-0.806, -1.202e-4
-0.807, -1.232e-4
-0.808, -1.261e-4
-0.809, -1.292e-4
-0.810, -1.324e-4
-0.811, -1.355e-4
-0.812, -1.386e-4
-0.813, -1.417e-4
-0.814, -1.448e-4
-0.815, -1.481e-4
-0.816, -1.513e-4
-0.817, -1.545e-4
-0.818, -1.577e-4
-0.819, -1.607e-4
-0.820, -1.636e-4
-0.821, -1.671e-4
-0.822, -1.703e-4
-0.823, -1.735e-4
-0.824, -1.768e-4
-0.825, -1.803e-4
-0.826, -1.837e-4
-0.827, -1.870e-4
-0.828, -1.903e-4
-0.829, -1.937e-4
-0.830, -1.971e-4
-0.831, -2.007e-4
-0.832, -2.041e-4
-0.833, -2.074e-4
-0.834, -2.108e-4
-0.835, -2.143e-4
-0.836, -2.179e-4
-0.837, -2.213e-4
-0.838, -2.247e-4
-0.839, -2.281e-4
-0.840, -2.317e-4
-0.841, -2.353e-4
-0.842, -2.388e-4
-0.843, -2.422e-4
-0.844, -2.456e-4
-0.845, -2.491e-4
-0.846, -2.527e-4
-0.847, -2.562e-4
-0.848, -2.596e-4
-0.849, -2.631e-4
-0.850, -2.668e-4
-0.851, -2.704e-4
-0.852, -2.739e-4
-0.853, -2.774e-4
-0.854, -2.808e-4
-0.855, -2.845e-4
-0.856, -2.881e-4
-0.857, -2.916e-4
-0.858, -2.951e-4
-0.859, -2.985e-4
-0.860, -3.022e-4
-0.861, -3.058e-4
-0.862, -3.093e-4
-0.863, -3.127e-4
-0.864, -3.162e-4
-0.865, -3.198e-4
-0.866, -3.234e-4
-0.867, -3.269e-4
-0.868, -3.302e-4
-0.869, -3.336e-4
-0.870, -3.372e-4
-0.871, -3.411e-4
-0.872, -3.445e-4
-0.873, -3.478e-4
-0.874, -3.512e-4
-0.875, -3.547e-4
-0.876, -3.582e-4
-0.877, -3.616e-4
-0.878, -3.648e-4
-0.879, -3.682e-4
-0.880, -3.716e-4
-0.881, -3.750e-4
-0.882, -3.784e-4
-0.883, -3.816e-4
-0.884, -3.849e-4
-0.885, -3.883e-4
-0.886, -3.916e-4
-0.887, -3.948e-4
-0.888, -3.980e-4
-0.889, -4.011e-4
-0.890, -4.044e-4
-0.891, -4.076e-4
-0.892, -4.108e-4
-0.893, -4.137e-4
-0.894, -4.168e-4
-0.895, -4.199e-4
-0.896, -4.230e-4
-0.897, -4.258e-4
-0.898, -4.287e-4
-0.899, -4.316e-4
-0.900, -4.347e-4
-0.901, -4.377e-4
-0.902, -4.405e-4
-0.903, -4.432e-4
-0.904, -4.460e-4
-0.905, -4.488e-4
-0.906, -4.517e-4
-0.907, -4.543e-4
-0.908, -4.569e-4
-0.909, -4.594e-4
-0.910, -4.621e-4
-0.911, -4.648e-4
-0.912, -4.672e-4
-0.913, -4.695e-4
-0.914, -4.720e-4
-0.915, -4.744e-4
-0.916, -4.768e-4
-0.917, -4.790e-4
-0.918, -4.811e-4
-0.919, -4.832e-4
-0.920, -4.855e-4
-0.921, -4.877e-4
-0.922, -4.898e-4
-0.923, -4.916e-4
-0.924, -4.935e-4
-0.925, -4.954e-4
-0.926, -4.972e-4
-0.927, -4.989e-4
-0.928, -5.004e-4
-0.929, -5.020e-4
-0.930, -5.037e-4
-0.931, -5.052e-4
-0.932, -5.065e-4
-0.933, -5.078e-4
-0.934, -5.089e-4
-0.935, -5.103e-4
-0.936, -5.115e-4
-0.937, -5.125e-4
-0.938, -5.134e-4
-0.939, -5.142e-4
-0.940, -5.152e-4
-0.941, -5.160e-4
-0.942, -5.166e-4
-0.943, -5.171e-4
-0.944, -5.175e-4
-0.945, -5.180e-4
-0.946, -5.184e-4
-0.947, -5.185e-4
-0.948, -5.183e-4
-0.949, -5.184e-4
-0.950, -5.184e-4
-0.951, -5.184e-4
-0.952, -5.182e-4
-0.953, -5.177e-4
-0.954, -5.172e-4
-0.955, -5.168e-4
-0.956, -5.163e-4
-0.957, -5.155e-4
-0.958, -5.146e-4
-0.959, -5.137e-4
-0.960, -5.128e-4
-0.961, -5.117e-4
-0.962, -5.106e-4
-0.963, -5.092e-4
-0.964, -5.077e-4
-0.965, -5.064e-4
-0.966, -5.049e-4
-0.967, -5.032e-4
-0.968, -5.014e-4
-0.969, -4.995e-4
-0.970, -4.977e-4
-0.971, -4.957e-4
-0.972, -4.936e-4
-0.973, -4.916e-4
-0.974, -4.893e-4
-0.975, -4.871e-4
-0.976, -4.848e-4
-0.977, -4.824e-4
-0.978, -4.798e-4
-0.979, -4.773e-4
-0.980, -4.748e-4
-0.981, -4.723e-4
-0.982, -4.696e-4
-0.983, -4.668e-4
-0.984, -4.642e-4
-0.985, -4.615e-4
-0.986, -4.588e-4
-0.987, -4.560e-4
-0.988, -4.532e-4
-0.989, -4.504e-4
-0.990, -4.477e-4
-0.991, -4.450e-4
-0.992, -4.422e-4
-0.993, -4.394e-4
-0.994, -4.367e-4
-0.995, -4.340e-4
-0.996, -4.313e-4
-0.997, -4.286e-4
-0.998, -4.259e-4
-0.999, -4.232e-4
-1.000, -4.206e-4
-1.001, -4.181e-4
-1.002, -4.155e-4
-1.003, -4.129e-4
-1.004, -4.104e-4
-1.005, -4.080e-4
-1.006, -4.056e-4
-1.007, -4.032e-4
-1.008, -4.008e-4
-1.009, -3.984e-4
-1.010, -3.962e-4
-1.011, -3.939e-4
-1.012, -3.917e-4
-1.013, -3.895e-4
-1.014, -3.873e-4
-1.015, -3.852e-4
-1.016, -3.831e-4
-1.017, -3.810e-4
-1.018, -3.789e-4
-1.019, -3.769e-4
-1.020, -3.749e-4
-1.021, -3.730e-4
-1.022, -3.711e-4
-1.023, -3.692e-4
-1.024, -3.673e-4
-1.025, -3.655e-4
-1.026, -3.637e-4
-1.027, -3.619e-4
-1.028, -3.601e-4
-1.029, -3.584e-4
-1.030, -3.567e-4
-1.031, -3.551e-4
-1.032, -3.534e-4
-1.033, -3.518e-4
-1.034, -3.502e-4
-1.035, -3.486e-4
-1.036, -3.470e-4
-1.037, -3.455e-4
-1.038, -3.440e-4
-1.039, -3.425e-4
-1.040, -3.410e-4
-1.041, -3.395e-4
-1.042, -3.381e-4
-1.043, -3.367e-4
-1.044, -3.353e-4
-1.045, -3.339e-4
-1.046, -3.326e-4
-1.047, -3.312e-4
-1.048, -3.299e-4
-1.049, -3.286e-4
-1.050, -3.273e-4
-1.051, -3.260e-4
-1.052, -3.247e-4
-1.053, -3.235e-4
-1.054, -3.222e-4
-1.055, -3.211e-4
-1.056, -3.198e-4
-1.057, -3.187e-4
-1.058, -3.175e-4
-1.059, -3.163e-4
-1.060, -3.152e-4
-1.061, -3.141e-4
-1.062, -3.130e-4
-1.063, -3.119e-4
-1.064, -3.108e-4
-1.065, -3.097e-4
-1.066, -3.087e-4
-1.067, -3.076e-4
-1.068, -3.066e-4
-1.069, -3.056e-4
-1.070, -3.046e-4
-1.071, -3.036e-4
-1.072, -3.026e-4
-1.073, -3.016e-4
-1.074, -3.007e-4
-1.075, -2.997e-4
-1.076, -2.988e-4
-1.077, -2.979e-4
-1.078, -2.969e-4
-1.079, -2.960e-4
-1.080, -2.951e-4
-1.081, -2.942e-4
-1.082, -2.933e-4
-1.083, -2.924e-4
-1.084, -2.915e-4
-1.085, -2.907e-4
-1.086, -2.898e-4
-1.087, -2.890e-4
-1.088, -2.882e-4
-1.089, -2.873e-4
-1.090, -2.865e-4
-1.091, -2.857e-4
-1.092, -2.849e-4
-1.093, -2.841e-4
-1.094, -2.833e-4
-1.095, -2.825e-4
-1.096, -2.817e-4
-1.097, -2.809e-4
-1.098, -2.802e-4
-1.099, -2.794e-4
-1.100, -2.787e-4
-1.101, -2.779e-4
-1.102, -2.772e-4
-1.103, -2.765e-4
-1.104, -2.757e-4
-1.105, -2.750e-4
-1.106, -2.743e-4
-1.107, -2.736e-4
-1.108, -2.729e-4
-1.109, -2.722e-4
-1.110, -2.716e-4
-1.111, -2.709e-4
-1.112, -2.702e-4
-1.113, -2.696e-4
-1.114, -2.689e-4
-1.115, -2.682e-4
-1.116, -2.676e-4
-1.117, -2.670e-4
-1.118, -2.663e-4
-1.119, -2.657e-4
-1.120, -2.651e-4
-1.121, -2.645e-4
-1.122, -2.639e-4
-1.123, -2.632e-4
-1.124, -2.626e-4
-1.125, -2.621e-4
-1.126, -2.614e-4
-1.127, -2.609e-4
-1.128, -2.603e-4
-1.129, -2.597e-4
-1.130, -2.591e-4
-1.131, -2.585e-4
-1.132, -2.580e-4
-1.133, -2.574e-4
-1.134, -2.569e-4
-1.135, -2.563e-4
-1.136, -2.558e-4
-1.137, -2.552e-4
-1.138, -2.547e-4
-1.139, -2.541e-4
-1.140, -2.536e-4
-1.141, -2.531e-4
-1.142, -2.525e-4
-1.143, -2.520e-4
-1.144, -2.515e-4
-1.145, -2.510e-4
-1.146, -2.504e-4
-1.147, -2.500e-4
-1.148, -2.494e-4
-1.149, -2.489e-4
-1.150, -2.484e-4
-1.151, -2.479e-4
-1.152, -2.475e-4
-1.153, -2.470e-4
-1.154, -2.465e-4
-1.155, -2.460e-4
-1.156, -2.455e-4
-1.157, -2.451e-4
-1.158, -2.446e-4
-1.159, -2.441e-4
-1.160, -2.437e-4
-1.161, -2.432e-4
-1.162, -2.428e-4
-1.163, -2.423e-4
-1.164, -2.419e-4
-1.165, -2.414e-4
-1.166, -2.410e-4
-1.167, -2.406e-4
-1.168, -2.401e-4
-1.169, -2.397e-4
-1.170, -2.392e-4
-1.171, -2.388e-4
-1.172, -2.384e-4
-1.173, -2.380e-4
-1.174, -2.375e-4
-1.175, -2.371e-4
-1.176, -2.367e-4
-1.177, -2.363e-4
-1.178, -2.359e-4
-1.179, -2.355e-4
-1.180, -2.351e-4
-1.181, -2.347e-4
-1.182, -2.343e-4
-1.183, -2.339e-4
-1.184, -2.335e-4
-1.185, -2.331e-4
-1.186, -2.327e-4
-1.187, -2.324e-4
-1.188, -2.320e-4
-1.189, -2.316e-4
-1.190, -2.312e-4
-1.191, -2.309e-4
-1.192, -2.305e-4
-1.193, -2.302e-4
-1.194, -2.298e-4
-1.195, -2.294e-4
-1.196, -2.290e-4
-1.197, -2.287e-4
-1.198, -2.283e-4
-1.199, -2.280e-4
