May 10, 2022   10:11:48
Cyclic Voltammetry
File: c:\users\nstumme\onedrive - university of iowa\documents\year 3\220510\tq\150 mv.csv
Data Source:  Experiment
Instrument Model:  CHI660D
Header: 
Note: 

Init E (V) = -1.2
High E (V) = -0.5
Low E (V) = -1.2
Init P/N = P
Scan Rate (V/s) = 0.15
Segment = 6
Sample Interval (V) = 0.001
Quiet Time (sec) = 2
Sensitivity (A/V) = 1e-4

Segment 1:

Segment 2:

Segment 3:

Segment 4:

Segment 5:
Segment 6:

Potential/V, Current/A

-1.200, -4.600e-5
-1.199, -4.591e-5
-1.198, -4.582e-5
-1.197, -4.575e-5
-1.196, -4.566e-5
-1.195, -4.559e-5
-1.194, -4.552e-5
-1.193, -4.544e-5
-1.192, -4.538e-5
-1.191, -4.530e-5
-1.190, -4.523e-5
-1.189, -4.516e-5
-1.188, -4.508e-5
-1.187, -4.502e-5
-1.186, -4.495e-5
-1.185, -4.489e-5
-1.184, -4.482e-5
-1.183, -4.475e-5
-1.182, -4.469e-5
-1.181, -4.462e-5
-1.180, -4.456e-5
-1.179, -4.449e-5
-1.178, -4.442e-5
-1.177, -4.436e-5
-1.176, -4.429e-5
-1.175, -4.423e-5
-1.174, -4.417e-5
-1.173, -4.409e-5
-1.172, -4.404e-5
-1.171, -4.397e-5
-1.170, -4.392e-5
-1.169, -4.385e-5
-1.168, -4.378e-5
-1.167, -4.373e-5
-1.166, -4.366e-5
-1.165, -4.360e-5
-1.164, -4.354e-5
-1.163, -4.347e-5
-1.162, -4.343e-5
-1.161, -4.335e-5
-1.160, -4.330e-5
-1.159, -4.324e-5
-1.158, -4.318e-5
-1.157, -4.313e-5
-1.156, -4.305e-5
-1.155, -4.300e-5
-1.154, -4.295e-5
-1.153, -4.288e-5
-1.152, -4.283e-5
-1.151, -4.276e-5
-1.150, -4.270e-5
-1.149, -4.264e-5
-1.148, -4.258e-5
-1.147, -4.253e-5
-1.146, -4.246e-5
-1.145, -4.241e-5
-1.144, -4.235e-5
-1.143, -4.229e-5
-1.142, -4.224e-5
-1.141, -4.218e-5
-1.140, -4.213e-5
-1.139, -4.207e-5
-1.138, -4.201e-5
-1.137, -4.196e-5
-1.136, -4.189e-5
-1.135, -4.185e-5
-1.134, -4.179e-5
-1.133, -4.173e-5
-1.132, -4.168e-5
-1.131, -4.162e-5
-1.130, -4.156e-5
-1.129, -4.151e-5
-1.128, -4.145e-5
-1.127, -4.141e-5
-1.126, -4.134e-5
-1.125, -4.129e-5
-1.124, -4.124e-5
-1.123, -4.118e-5
-1.122, -4.113e-5
-1.121, -4.107e-5
-1.120, -4.102e-5
-1.119, -4.097e-5
-1.118, -4.090e-5
-1.117, -4.086e-5
-1.116, -4.079e-5
-1.115, -4.075e-5
-1.114, -4.069e-5
-1.113, -4.064e-5
-1.112, -4.059e-5
-1.111, -4.053e-5
-1.110, -4.049e-5
-1.109, -4.043e-5
-1.108, -4.037e-5
-1.107, -4.033e-5
-1.106, -4.027e-5
-1.105, -4.022e-5
-1.104, -4.017e-5
-1.103, -4.011e-5
-1.102, -4.007e-5
-1.101, -4.001e-5
-1.100, -3.996e-5
-1.099, -3.990e-5
-1.098, -3.984e-5
-1.097, -3.980e-5
-1.096, -3.974e-5
-1.095, -3.969e-5
-1.094, -3.964e-5
-1.093, -3.958e-5
-1.092, -3.955e-5
-1.091, -3.948e-5
-1.090, -3.943e-5
-1.089, -3.938e-5
-1.088, -3.932e-5
-1.087, -3.928e-5
-1.086, -3.922e-5
-1.085, -3.917e-5
-1.084, -3.912e-5
-1.083, -3.906e-5
-1.082, -3.902e-5
-1.081, -3.895e-5
-1.080, -3.891e-5
-1.079, -3.885e-5
-1.078, -3.880e-5
-1.077, -3.875e-5
-1.076, -3.869e-5
-1.075, -3.864e-5
-1.074, -3.859e-5
-1.073, -3.853e-5
-1.072, -3.849e-5
-1.071, -3.843e-5
-1.070, -3.838e-5
-1.069, -3.833e-5
-1.068, -3.827e-5
-1.067, -3.822e-5
-1.066, -3.816e-5
-1.065, -3.811e-5
-1.064, -3.806e-5
-1.063, -3.800e-5
-1.062, -3.796e-5
-1.061, -3.789e-5
-1.060, -3.785e-5
-1.059, -3.779e-5
-1.058, -3.773e-5
-1.057, -3.768e-5
-1.056, -3.762e-5
-1.055, -3.758e-5
-1.054, -3.752e-5
-1.053, -3.745e-5
-1.052, -3.741e-5
-1.051, -3.735e-5
-1.050, -3.730e-5
-1.049, -3.724e-5
-1.048, -3.718e-5
-1.047, -3.714e-5
-1.046, -3.707e-5
-1.045, -3.702e-5
-1.044, -3.696e-5
-1.043, -3.690e-5
-1.042, -3.686e-5
-1.041, -3.679e-5
-1.040, -3.674e-5
-1.039, -3.668e-5
-1.038, -3.661e-5
-1.037, -3.656e-5
-1.036, -3.649e-5
-1.035, -3.644e-5
-1.034, -3.638e-5
-1.033, -3.631e-5
-1.032, -3.626e-5
-1.031, -3.619e-5
-1.030, -3.614e-5
-1.029, -3.607e-5
-1.028, -3.601e-5
-1.027, -3.595e-5
-1.026, -3.588e-5
-1.025, -3.582e-5
-1.024, -3.575e-5
-1.023, -3.569e-5
-1.022, -3.563e-5
-1.021, -3.555e-5
-1.020, -3.549e-5
-1.019, -3.542e-5
-1.018, -3.535e-5
-1.017, -3.529e-5
-1.016, -3.521e-5
-1.015, -3.515e-5
-1.014, -3.508e-5
-1.013, -3.500e-5
-1.012, -3.493e-5
-1.011, -3.485e-5
-1.010, -3.478e-5
-1.009, -3.471e-5
-1.008, -3.463e-5
-1.007, -3.456e-5
-1.006, -3.447e-5
-1.005, -3.440e-5
-1.004, -3.432e-5
-1.003, -3.423e-5
-1.002, -3.416e-5
-1.001, -3.407e-5
-1.000, -3.398e-5
-0.999, -3.390e-5
-0.998, -3.382e-5
-0.997, -3.373e-5
-0.996, -3.364e-5
-0.995, -3.355e-5
-0.994, -3.345e-5
-0.993, -3.336e-5
-0.992, -3.327e-5
-0.991, -3.317e-5
-0.990, -3.307e-5
-0.989, -3.297e-5
-0.988, -3.287e-5
-0.987, -3.277e-5
-0.986, -3.266e-5
-0.985, -3.255e-5
-0.984, -3.244e-5
-0.983, -3.233e-5
-0.982, -3.223e-5
-0.981, -3.210e-5
-0.980, -3.199e-5
-0.979, -3.187e-5
-0.978, -3.175e-5
-0.977, -3.163e-5
-0.976, -3.150e-5
-0.975, -3.138e-5
-0.974, -3.124e-5
-0.973, -3.110e-5
-0.972, -3.096e-5
-0.971, -3.082e-5
-0.970, -3.068e-5
-0.969, -3.054e-5
-0.968, -3.039e-5
-0.967, -3.025e-5
-0.966, -3.009e-5
-0.965, -2.993e-5
-0.964, -2.977e-5
-0.963, -2.961e-5
-0.962, -2.944e-5
-0.961, -2.927e-5
-0.960, -2.910e-5
-0.959, -2.892e-5
-0.958, -2.874e-5
-0.957, -2.855e-5
-0.956, -2.836e-5
-0.955, -2.817e-5
-0.954, -2.797e-5
-0.953, -2.778e-5
-0.952, -2.756e-5
-0.951, -2.736e-5
-0.950, -2.714e-5
-0.949, -2.691e-5
-0.948, -2.669e-5
-0.947, -2.648e-5
-0.946, -2.624e-5
-0.945, -2.600e-5
-0.944, -2.575e-5
-0.943, -2.551e-5
-0.942, -2.524e-5
-0.941, -2.499e-5
-0.940, -2.473e-5
-0.939, -2.444e-5
-0.938, -2.417e-5
-0.937, -2.388e-5
-0.936, -2.359e-5
-0.935, -2.330e-5
-0.934, -2.298e-5
-0.933, -2.268e-5
-0.932, -2.235e-5
-0.931, -2.204e-5
-0.930, -2.171e-5
-0.929, -2.136e-5
-0.928, -2.104e-5
-0.927, -2.068e-5
-0.926, -2.031e-5
-0.925, -1.997e-5
-0.924, -1.958e-5
-0.923, -1.921e-5
-0.922, -1.880e-5
-0.921, -1.840e-5
-0.920, -1.799e-5
-0.919, -1.758e-5
-0.918, -1.719e-5
-0.917, -1.674e-5
-0.916, -1.631e-5
-0.915, -1.588e-5
-0.914, -1.541e-5
-0.913, -1.497e-5
-0.912, -1.449e-5
-0.911, -1.402e-5
-0.910, -1.354e-5
-0.909, -1.304e-5
-0.908, -1.257e-5
-0.907, -1.203e-5
-0.906, -1.151e-5
-0.905, -1.101e-5
-0.904, -1.043e-5
-0.903, -9.934e-6
-0.902, -9.379e-6
-0.901, -8.820e-6
-0.900, -8.275e-6
-0.899, -7.675e-6
-0.898, -7.121e-6
-0.897, -6.493e-6
-0.896, -5.963e-6
-0.895, -5.390e-6
-0.894, -4.733e-6
-0.893, -4.140e-6
-0.892, -3.487e-6
-0.891, -2.846e-6
-0.890, -2.238e-6
-0.889, -1.578e-6
-0.888, -9.442e-7
-0.887, -2.611e-7
-0.886, 3.847e-7
-0.885, 1.055e-6
-0.884, 1.761e-6
-0.883, 2.420e-6
-0.882, 3.135e-6
-0.881, 3.819e-6
-0.880, 4.490e-6
-0.879, 5.222e-6
-0.878, 5.909e-6
-0.877, 6.625e-6
-0.876, 7.318e-6
-0.875, 8.020e-6
-0.874, 8.768e-6
-0.873, 9.432e-6
-0.872, 1.020e-5
-0.871, 1.090e-5
-0.870, 1.166e-5
-0.869, 1.242e-5
-0.868, 1.310e-5
-0.867, 1.382e-5
-0.866, 1.451e-5
-0.865, 1.522e-5
-0.864, 1.595e-5
-0.863, 1.662e-5
-0.862, 1.737e-5
-0.861, 1.805e-5
-0.860, 1.872e-5
-0.859, 1.945e-5
-0.858, 2.009e-5
-0.857, 2.082e-5
-0.856, 2.149e-5
-0.855, 2.213e-5
-0.854, 2.281e-5
-0.853, 2.343e-5
-0.852, 2.411e-5
-0.851, 2.473e-5
-0.850, 2.533e-5
-0.849, 2.598e-5
-0.848, 2.653e-5
-0.847, 2.716e-5
-0.846, 2.774e-5
-0.845, 2.824e-5
-0.844, 2.880e-5
-0.843, 2.933e-5
-0.842, 2.988e-5
-0.841, 3.039e-5
-0.840, 3.089e-5
-0.839, 3.141e-5
-0.838, 3.185e-5
-0.837, 3.233e-5
-0.836, 3.277e-5
-0.835, 3.319e-5
-0.834, 3.362e-5
-0.833, 3.399e-5
-0.832, 3.441e-5
-0.831, 3.476e-5
-0.830, 3.510e-5
-0.829, 3.545e-5
-0.828, 3.572e-5
-0.827, 3.605e-5
-0.826, 3.631e-5
-0.825, 3.656e-5
-0.824, 3.683e-5
-0.823, 3.701e-5
-0.822, 3.723e-5
-0.821, 3.742e-5
-0.820, 3.759e-5
-0.819, 3.762e-5
-0.818, 3.774e-5
-0.817, 3.792e-5
-0.816, 3.803e-5
-0.815, 3.810e-5
-0.814, 3.822e-5
-0.813, 3.825e-5
-0.812, 3.830e-5
-0.811, 3.834e-5
-0.810, 3.833e-5
-0.809, 3.835e-5
-0.808, 3.832e-5
-0.807, 3.830e-5
-0.806, 3.826e-5
-0.805, 3.819e-5
-0.804, 3.814e-5
-0.803, 3.802e-5
-0.802, 3.794e-5
-0.801, 3.782e-5
-0.800, 3.769e-5
-0.799, 3.757e-5
-0.798, 3.742e-5
-0.797, 3.727e-5
-0.796, 3.710e-5
-0.795, 3.694e-5
-0.794, 3.676e-5
-0.793, 3.652e-5
-0.792, 3.635e-5
-0.791, 3.614e-5
-0.790, 3.592e-5
-0.789, 3.573e-5
-0.788, 3.548e-5
-0.787, 3.527e-5
-0.786, 3.503e-5
-0.785, 3.479e-5
-0.784, 3.456e-5
-0.783, 3.429e-5
-0.782, 3.407e-5
-0.781, 3.381e-5
-0.780, 3.354e-5
-0.779, 3.331e-5
-0.778, 3.303e-5
-0.777, 3.277e-5
-0.776, 3.250e-5
-0.775, 3.223e-5
-0.774, 3.197e-5
-0.773, 3.170e-5
-0.772, 3.144e-5
-0.771, 3.116e-5
-0.770, 3.088e-5
-0.769, 3.062e-5
-0.768, 3.037e-5
-0.767, 3.010e-5
-0.766, 2.983e-5
-0.765, 2.956e-5
-0.764, 2.930e-5
-0.763, 2.903e-5
-0.762, 2.876e-5
-0.761, 2.851e-5
-0.760, 2.824e-5
-0.759, 2.798e-5
-0.758, 2.772e-5
-0.757, 2.747e-5
-0.756, 2.722e-5
-0.755, 2.696e-5
-0.754, 2.672e-5
-0.753, 2.647e-5
-0.752, 2.622e-5
-0.751, 2.598e-5
-0.750, 2.573e-5
-0.749, 2.550e-5
-0.748, 2.526e-5
-0.747, 2.503e-5
-0.746, 2.481e-5
-0.745, 2.457e-5
-0.744, 2.435e-5
-0.743, 2.412e-5
-0.742, 2.389e-5
-0.741, 2.368e-5
-0.740, 2.346e-5
-0.739, 2.325e-5
-0.738, 2.304e-5
-0.737, 2.283e-5
-0.736, 2.263e-5
-0.735, 2.242e-5
-0.734, 2.222e-5
-0.733, 2.203e-5
-0.732, 2.183e-5
-0.731, 2.164e-5
-0.730, 2.145e-5
-0.729, 2.126e-5
-0.728, 2.108e-5
-0.727, 2.089e-5
-0.726, 2.071e-5
-0.725, 2.053e-5
-0.724, 2.035e-5
-0.723, 2.018e-5
-0.722, 2.000e-5
-0.721, 1.984e-5
-0.720, 1.967e-5
-0.719, 1.950e-5
-0.718, 1.934e-5
-0.717, 1.918e-5
-0.716, 1.902e-5
-0.715, 1.886e-5
-0.714, 1.870e-5
-0.713, 1.855e-5
-0.712, 1.839e-5
-0.711, 1.825e-5
-0.710, 1.810e-5
-0.709, 1.795e-5
-0.708, 1.781e-5
-0.707, 1.766e-5
-0.706, 1.753e-5
-0.705, 1.739e-5
-0.704, 1.725e-5
-0.703, 1.712e-5
-0.702, 1.698e-5
-0.701, 1.686e-5
-0.700, 1.673e-5
-0.699, 1.659e-5
-0.698, 1.647e-5
-0.697, 1.634e-5
-0.696, 1.622e-5
-0.695, 1.609e-5
-0.694, 1.597e-5
-0.693, 1.586e-5
-0.692, 1.573e-5
-0.691, 1.562e-5
-0.690, 1.550e-5
-0.689, 1.538e-5
-0.688, 1.528e-5
-0.687, 1.515e-5
-0.686, 1.506e-5
-0.685, 1.494e-5
-0.684, 1.484e-5
-0.683, 1.474e-5
-0.682, 1.463e-5
-0.681, 1.453e-5
-0.680, 1.442e-5
-0.679, 1.432e-5
-0.678, 1.423e-5
-0.677, 1.412e-5
-0.676, 1.403e-5
-0.675, 1.393e-5
-0.674, 1.383e-5
-0.673, 1.375e-5
-0.672, 1.365e-5
-0.671, 1.356e-5
-0.670, 1.346e-5
-0.669, 1.337e-5
-0.668, 1.329e-5
-0.667, 1.319e-5
-0.666, 1.311e-5
-0.665, 1.302e-5
-0.664, 1.293e-5
-0.663, 1.286e-5
-0.662, 1.276e-5
-0.661, 1.269e-5
-0.660, 1.260e-5
-0.659, 1.251e-5
-0.658, 1.245e-5
-0.657, 1.236e-5
-0.656, 1.228e-5
-0.655, 1.220e-5
-0.654, 1.212e-5
-0.653, 1.205e-5
-0.652, 1.197e-5
-0.651, 1.190e-5
-0.650, 1.183e-5
-0.649, 1.174e-5
-0.648, 1.168e-5
-0.647, 1.160e-5
-0.646, 1.153e-5
-0.645, 1.147e-5
-0.644, 1.139e-5
-0.643, 1.133e-5
-0.642, 1.125e-5
-0.641, 1.119e-5
-0.640, 1.112e-5
-0.639, 1.105e-5
-0.638, 1.100e-5
-0.637, 1.092e-5
-0.636, 1.086e-5
-0.635, 1.080e-5
-0.634, 1.073e-5
-0.633, 1.068e-5
-0.632, 1.060e-5
-0.631, 1.055e-5
-0.630, 1.049e-5
-0.629, 1.043e-5
-0.628, 1.037e-5
-0.627, 1.030e-5
-0.626, 1.025e-5
-0.625, 1.019e-5
-0.624, 1.013e-5
-0.623, 1.008e-5
-0.622, 1.002e-5
-0.621, 9.970e-6
-0.620, 9.913e-6
-0.619, 9.854e-6
-0.618, 9.813e-6
-0.617, 9.753e-6
-0.616, 9.705e-6
-0.615, 9.652e-6
-0.614, 9.591e-6
-0.613, 9.555e-6
-0.612, 9.494e-6
-0.611, 9.451e-6
-0.610, 9.400e-6
-0.609, 9.343e-6
-0.608, 9.306e-6
-0.607, 9.245e-6
-0.606, 9.205e-6
-0.605, 9.154e-6
-0.604, 9.102e-6
-0.603, 9.069e-6
-0.602, 9.012e-6
-0.601, 8.973e-6
-0.600, 8.928e-6
-0.599, 8.874e-6
-0.598, 8.843e-6
-0.597, 8.789e-6
-0.596, 8.752e-6
-0.595, 8.710e-6
-0.594, 8.657e-6
-0.593, 8.627e-6
-0.592, 8.579e-6
-0.591, 8.546e-6
-0.590, 8.507e-6
-0.589, 8.458e-6
-0.588, 8.433e-6
-0.587, 8.382e-6
-0.586, 8.353e-6
-0.585, 8.316e-6
-0.584, 8.271e-6
-0.583, 8.246e-6
-0.582, 8.197e-6
-0.581, 8.165e-6
-0.580, 8.132e-6
-0.579, 8.094e-6
-0.578, 8.072e-6
-0.577, 8.026e-6
-0.576, 8.002e-6
-0.575, 7.968e-6
-0.574, 7.930e-6
-0.573, 7.906e-6
-0.572, 7.867e-6
-0.571, 7.844e-6
-0.570, 7.817e-6
-0.569, 7.781e-6
-0.568, 7.765e-6
-0.567, 7.724e-6
-0.566, 7.706e-6
-0.565, 7.677e-6
-0.564, 7.646e-6
-0.563, 7.636e-6
-0.562, 7.606e-6
-0.561, 7.590e-6
-0.560, 7.571e-6
-0.559, 7.541e-6
-0.558, 7.533e-6
-0.557, 7.504e-6
-0.556, 7.491e-6
-0.555, 7.476e-6
-0.554, 7.453e-6
-0.553, 7.450e-6
-0.552, 7.426e-6
-0.551, 7.421e-6
-0.550, 7.411e-6
-0.549, 7.397e-6
-0.548, 7.400e-6
-0.547, 7.387e-6
-0.546, 7.391e-6
-0.545, 7.391e-6
-0.544, 7.388e-6
-0.543, 7.401e-6
-0.542, 7.399e-6
-0.541, 7.414e-6
-0.540, 7.426e-6
-0.539, 7.441e-6
-0.538, 7.465e-6
-0.537, 7.477e-6
-0.536, 7.508e-6
-0.535, 7.537e-6
-0.534, 7.561e-6
-0.533, 7.607e-6
-0.532, 7.634e-6
-0.531, 7.680e-6
-0.530, 7.731e-6
-0.529, 7.780e-6
-0.528, 7.840e-6
-0.527, 7.889e-6
-0.526, 7.962e-6
-0.525, 8.029e-6
-0.524, 8.094e-6
-0.523, 8.177e-6
-0.522, 8.247e-6
-0.521, 8.335e-6
-0.520, 8.416e-6
-0.519, 8.501e-6
-0.518, 8.596e-6
-0.517, 8.684e-6
-0.516, 8.788e-6
-0.515, 8.883e-6
-0.514, 8.984e-6
-0.513, 9.095e-6
-0.512, 9.206e-6
-0.511, 9.322e-6
-0.510, 9.437e-6
-0.509, 9.551e-6
-0.508, 9.671e-6
-0.507, 9.789e-6
-0.506, 9.910e-6
-0.505, 1.003e-5
-0.504, 1.017e-5
-0.503, 1.030e-5
-0.502, 1.044e-5
-0.501, 1.058e-5
-0.500, 1.044e-5
-0.501, 9.886e-6
-0.502, 9.487e-6
-0.503, 9.143e-6
-0.504, 8.847e-6
-0.505, 8.577e-6
-0.506, 8.334e-6
-0.507, 8.106e-6
-0.508, 7.891e-6
-0.509, 7.692e-6
-0.510, 7.504e-6
-0.511, 7.321e-6
-0.512, 7.148e-6
-0.513, 6.980e-6
-0.514, 6.834e-6
-0.515, 6.681e-6
-0.516, 6.540e-6
-0.517, 6.407e-6
-0.518, 6.267e-6
-0.519, 6.148e-6
-0.520, 6.027e-6
-0.521, 5.908e-6
-0.522, 5.808e-6
-0.523, 5.687e-6
-0.524, 5.592e-6
-0.525, 5.487e-6
-0.526, 5.387e-6
-0.527, 5.304e-6
-0.528, 5.204e-6
-0.529, 5.128e-6
-0.530, 5.045e-6
-0.531, 4.960e-6
-0.532, 4.897e-6
-0.533, 4.813e-6
-0.534, 4.745e-6
-0.535, 4.686e-6
-0.536, 4.617e-6
-0.537, 4.569e-6
-0.538, 4.505e-6
-0.539, 4.455e-6
-0.540, 4.408e-6
-0.541, 4.352e-6
-0.542, 4.317e-6
-0.543, 4.260e-6
-0.544, 4.227e-6
-0.545, 4.192e-6
-0.546, 4.148e-6
-0.547, 4.125e-6
-0.548, 4.082e-6
-0.549, 4.056e-6
-0.550, 4.024e-6
-0.551, 3.987e-6
-0.552, 3.968e-6
-0.553, 3.933e-6
-0.554, 3.914e-6
-0.555, 3.892e-6
-0.556, 3.858e-6
-0.557, 3.848e-6
-0.558, 3.812e-6
-0.559, 3.795e-6
-0.560, 3.775e-6
-0.561, 3.747e-6
-0.562, 3.738e-6
-0.563, 3.711e-6
-0.564, 3.698e-6
-0.565, 3.685e-6
-0.566, 3.658e-6
-0.567, 3.652e-6
-0.568, 3.625e-6
-0.569, 3.612e-6
-0.570, 3.599e-6
-0.571, 3.571e-6
-0.572, 3.567e-6
-0.573, 3.538e-6
-0.574, 3.526e-6
-0.575, 3.513e-6
-0.576, 3.486e-6
-0.577, 3.483e-6
-0.578, 3.458e-6
-0.579, 3.447e-6
-0.580, 3.436e-6
-0.581, 3.412e-6
-0.582, 3.410e-6
-0.583, 3.385e-6
-0.584, 3.374e-6
-0.585, 3.362e-6
-0.586, 3.339e-6
-0.587, 3.337e-6
-0.588, 3.311e-6
-0.589, 3.300e-6
-0.590, 3.288e-6
-0.591, 3.265e-6
-0.592, 3.263e-6
-0.593, 3.238e-6
-0.594, 3.231e-6
-0.595, 3.218e-6
-0.596, 3.199e-6
-0.597, 3.196e-6
-0.598, 3.174e-6
-0.599, 3.163e-6
-0.600, 3.153e-6
-0.601, 3.128e-6
-0.602, 3.128e-6
-0.603, 3.103e-6
-0.604, 3.093e-6
-0.605, 3.082e-6
-0.606, 3.058e-6
-0.607, 3.056e-6
-0.608, 3.033e-6
-0.609, 3.022e-6
-0.610, 3.013e-6
-0.611, 2.991e-6
-0.612, 2.990e-6
-0.613, 2.969e-6
-0.614, 2.958e-6
-0.615, 2.949e-6
-0.616, 2.925e-6
-0.617, 2.924e-6
-0.618, 2.901e-6
-0.619, 2.891e-6
-0.620, 2.884e-6
-0.621, 2.859e-6
-0.622, 2.859e-6
-0.623, 2.834e-6
-0.624, 2.824e-6
-0.625, 2.815e-6
-0.626, 2.791e-6
-0.627, 2.791e-6
-0.628, 2.769e-6
-0.629, 2.762e-6
-0.630, 2.753e-6
-0.631, 2.731e-6
-0.632, 2.731e-6
-0.633, 2.709e-6
-0.634, 2.699e-6
-0.635, 2.690e-6
-0.636, 2.666e-6
-0.637, 2.666e-6
-0.638, 2.642e-6
-0.639, 2.633e-6
-0.640, 2.624e-6
-0.641, 2.601e-6
-0.642, 2.600e-6
-0.643, 2.577e-6
-0.644, 2.567e-6
-0.645, 2.556e-6
-0.646, 2.534e-6
-0.647, 2.534e-6
-0.648, 2.512e-6
-0.649, 2.503e-6
-0.650, 2.494e-6
-0.651, 2.472e-6
-0.652, 2.469e-6
-0.653, 2.448e-6
-0.654, 2.436e-6
-0.655, 2.427e-6
-0.656, 2.403e-6
-0.657, 2.402e-6
-0.658, 2.378e-6
-0.659, 2.368e-6
-0.660, 2.358e-6
-0.661, 2.332e-6
-0.662, 2.329e-6
-0.663, 2.304e-6
-0.664, 2.294e-6
-0.665, 2.285e-6
-0.666, 2.265e-6
-0.667, 2.261e-6
-0.668, 2.240e-6
-0.669, 2.229e-6
-0.670, 2.219e-6
-0.671, 2.192e-6
-0.672, 2.190e-6
-0.673, 2.165e-6
-0.674, 2.154e-6
-0.675, 2.142e-6
-0.676, 2.117e-6
-0.677, 2.113e-6
-0.678, 2.087e-6
-0.679, 2.072e-6
-0.680, 2.061e-6
-0.681, 2.037e-6
-0.682, 2.033e-6
-0.683, 2.008e-6
-0.684, 1.996e-6
-0.685, 1.984e-6
-0.686, 1.960e-6
-0.687, 1.953e-6
-0.688, 1.927e-6
-0.689, 1.914e-6
-0.690, 1.898e-6
-0.691, 1.872e-6
-0.692, 1.865e-6
-0.693, 1.833e-6
-0.694, 1.817e-6
-0.695, 1.802e-6
-0.696, 1.775e-6
-0.697, 1.767e-6
-0.698, 1.741e-6
-0.699, 1.722e-6
-0.700, 1.707e-6
-0.701, 1.675e-6
-0.702, 1.664e-6
-0.703, 1.635e-6
-0.704, 1.613e-6
-0.705, 1.596e-6
-0.706, 1.563e-6
-0.707, 1.551e-6
-0.708, 1.520e-6
-0.709, 1.499e-6
-0.710, 1.479e-6
-0.711, 1.447e-6
-0.712, 1.432e-6
-0.713, 1.397e-6
-0.714, 1.371e-6
-0.715, 1.345e-6
-0.716, 1.308e-6
-0.717, 1.292e-6
-0.718, 1.256e-6
-0.719, 1.233e-6
-0.720, 1.205e-6
-0.721, 1.168e-6
-0.722, 1.144e-6
-0.723, 1.103e-6
-0.724, 1.073e-6
-0.725, 1.042e-6
-0.726, 1.000e-6
-0.727, 9.790e-7
-0.728, 9.341e-7
-0.729, 9.009e-7
-0.730, 8.635e-7
-0.731, 8.158e-7
-0.732, 7.906e-7
-0.733, 7.444e-7
-0.734, 7.047e-7
-0.735, 6.636e-7
-0.736, 6.114e-7
-0.737, 5.725e-7
-0.738, 5.207e-7
-0.739, 4.779e-7
-0.740, 4.345e-7
-0.741, 3.756e-7
-0.742, 3.383e-7
-0.743, 2.865e-7
-0.744, 2.319e-7
-0.745, 1.807e-7
-0.746, 1.143e-7
-0.747, 6.152e-8
-0.748, -2.266e-9
-0.749, -5.926e-8
-0.750, -1.244e-7
-0.751, -1.927e-7
-0.752, -2.489e-7
-0.753, -3.263e-7
-0.754, -3.997e-7
-0.755, -4.706e-7
-0.756, -5.461e-7
-0.757, -6.214e-7
-0.758, -6.998e-7
-0.759, -7.770e-7
-0.760, -8.671e-7
-0.761, -9.562e-7
-0.762, -1.038e-6
-0.763, -1.139e-6
-0.764, -1.225e-6
-0.765, -1.324e-6
-0.766, -1.428e-6
-0.767, -1.525e-6
-0.768, -1.648e-6
-0.769, -1.750e-6
-0.770, -1.859e-6
-0.771, -1.973e-6
-0.772, -2.087e-6
-0.773, -2.213e-6
-0.774, -2.336e-6
-0.775, -2.463e-6
-0.776, -2.604e-6
-0.777, -2.731e-6
-0.778, -2.877e-6
-0.779, -3.021e-6
-0.780, -3.173e-6
-0.781, -3.330e-6
-0.782, -3.485e-6
-0.783, -3.650e-6
-0.784, -3.812e-6
-0.785, -3.994e-6
-0.786, -4.166e-6
-0.787, -4.341e-6
-0.788, -4.529e-6
-0.789, -4.718e-6
-0.790, -4.917e-6
-0.791, -5.113e-6
-0.792, -5.324e-6
-0.793, -5.531e-6
-0.794, -5.721e-6
-0.795, -5.958e-6
-0.796, -6.183e-6
-0.797, -6.421e-6
-0.798, -6.667e-6
-0.799, -6.907e-6
-0.800, -7.161e-6
-0.801, -7.414e-6
-0.802, -7.690e-6
-0.803, -7.956e-6
-0.804, -8.227e-6
-0.805, -8.529e-6
-0.806, -8.812e-6
-0.807, -9.109e-6
-0.808, -9.426e-6
-0.809, -9.714e-6
-0.810, -1.003e-5
-0.811, -1.035e-5
-0.812, -1.069e-5
-0.813, -1.102e-5
-0.814, -1.135e-5
-0.815, -1.172e-5
-0.816, -1.206e-5
-0.817, -1.243e-5
-0.818, -1.281e-5
-0.819, -1.312e-5
-0.820, -1.349e-5
-0.821, -1.388e-5
-0.822, -1.428e-5
-0.823, -1.468e-5
-0.824, -1.511e-5
-0.825, -1.552e-5
-0.826, -1.592e-5
-0.827, -1.637e-5
-0.828, -1.680e-5
-0.829, -1.722e-5
-0.830, -1.769e-5
-0.831, -1.814e-5
-0.832, -1.861e-5
-0.833, -1.908e-5
-0.834, -1.954e-5
-0.835, -2.003e-5
-0.836, -2.048e-5
-0.837, -2.099e-5
-0.838, -2.147e-5
-0.839, -2.195e-5
-0.840, -2.247e-5
-0.841, -2.296e-5
-0.842, -2.347e-5
-0.843, -2.399e-5
-0.844, -2.448e-5
-0.845, -2.498e-5
-0.846, -2.548e-5
-0.847, -2.601e-5
-0.848, -2.654e-5
-0.849, -2.705e-5
-0.850, -2.761e-5
-0.851, -2.813e-5
-0.852, -2.865e-5
-0.853, -2.919e-5
-0.854, -2.970e-5
-0.855, -3.026e-5
-0.856, -3.078e-5
-0.857, -3.134e-5
-0.858, -3.188e-5
-0.859, -3.240e-5
-0.860, -3.296e-5
-0.861, -3.346e-5
-0.862, -3.401e-5
-0.863, -3.455e-5
-0.864, -3.505e-5
-0.865, -3.559e-5
-0.866, -3.609e-5
-0.867, -3.662e-5
-0.868, -3.712e-5
-0.869, -3.761e-5
-0.870, -3.818e-5
-0.871, -3.869e-5
-0.872, -3.920e-5
-0.873, -3.968e-5
-0.874, -4.015e-5
-0.875, -4.067e-5
-0.876, -4.111e-5
-0.877, -4.158e-5
-0.878, -4.206e-5
-0.879, -4.251e-5
-0.880, -4.298e-5
-0.881, -4.340e-5
-0.882, -4.387e-5
-0.883, -4.430e-5
-0.884, -4.471e-5
-0.885, -4.516e-5
-0.886, -4.555e-5
-0.887, -4.596e-5
-0.888, -4.636e-5
-0.889, -4.674e-5
-0.890, -4.714e-5
-0.891, -4.750e-5
-0.892, -4.787e-5
-0.893, -4.823e-5
-0.894, -4.856e-5
-0.895, -4.891e-5
-0.896, -4.918e-5
-0.897, -4.951e-5
-0.898, -4.986e-5
-0.899, -5.014e-5
-0.900, -5.046e-5
-0.901, -5.073e-5
-0.902, -5.102e-5
-0.903, -5.130e-5
-0.904, -5.155e-5
-0.905, -5.183e-5
-0.906, -5.206e-5
-0.907, -5.231e-5
-0.908, -5.254e-5
-0.909, -5.276e-5
-0.910, -5.299e-5
-0.911, -5.318e-5
-0.912, -5.339e-5
-0.913, -5.357e-5
-0.914, -5.375e-5
-0.915, -5.394e-5
-0.916, -5.408e-5
-0.917, -5.424e-5
-0.918, -5.439e-5
-0.919, -5.452e-5
-0.920, -5.468e-5
-0.921, -5.480e-5
-0.922, -5.495e-5
-0.923, -5.506e-5
-0.924, -5.515e-5
-0.925, -5.525e-5
-0.926, -5.532e-5
-0.927, -5.542e-5
-0.928, -5.549e-5
-0.929, -5.555e-5
-0.930, -5.563e-5
-0.931, -5.567e-5
-0.932, -5.572e-5
-0.933, -5.577e-5
-0.934, -5.581e-5
-0.935, -5.585e-5
-0.936, -5.587e-5
-0.937, -5.590e-5
-0.938, -5.591e-5
-0.939, -5.591e-5
-0.940, -5.593e-5
-0.941, -5.591e-5
-0.942, -5.592e-5
-0.943, -5.592e-5
-0.944, -5.589e-5
-0.945, -5.587e-5
-0.946, -5.585e-5
-0.947, -5.580e-5
-0.948, -5.576e-5
-0.949, -5.572e-5
-0.950, -5.569e-5
-0.951, -5.564e-5
-0.952, -5.560e-5
-0.953, -5.554e-5
-0.954, -5.548e-5
-0.955, -5.543e-5
-0.956, -5.537e-5
-0.957, -5.530e-5
-0.958, -5.524e-5
-0.959, -5.516e-5
-0.960, -5.509e-5
-0.961, -5.501e-5
-0.962, -5.492e-5
-0.963, -5.484e-5
-0.964, -5.474e-5
-0.965, -5.467e-5
-0.966, -5.457e-5
-0.967, -5.446e-5
-0.968, -5.438e-5
-0.969, -5.428e-5
-0.970, -5.418e-5
-0.971, -5.408e-5
-0.972, -5.397e-5
-0.973, -5.389e-5
-0.974, -5.377e-5
-0.975, -5.366e-5
-0.976, -5.355e-5
-0.977, -5.343e-5
-0.978, -5.333e-5
-0.979, -5.320e-5
-0.980, -5.309e-5
-0.981, -5.297e-5
-0.982, -5.285e-5
-0.983, -5.274e-5
-0.984, -5.262e-5
-0.985, -5.249e-5
-0.986, -5.238e-5
-0.987, -5.225e-5
-0.988, -5.214e-5
-0.989, -5.201e-5
-0.990, -5.189e-5
-0.991, -5.177e-5
-0.992, -5.164e-5
-0.993, -5.152e-5
-0.994, -5.139e-5
-0.995, -5.126e-5
-0.996, -5.114e-5
-0.997, -5.101e-5
-0.998, -5.088e-5
-0.999, -5.075e-5
-1.000, -5.063e-5
-1.001, -5.051e-5
-1.002, -5.038e-5
-1.003, -5.026e-5
-1.004, -5.014e-5
-1.005, -5.001e-5
-1.006, -4.989e-5
-1.007, -4.976e-5
-1.008, -4.964e-5
-1.009, -4.952e-5
-1.010, -4.939e-5
-1.011, -4.928e-5
-1.012, -4.915e-5
-1.013, -4.903e-5
-1.014, -4.890e-5
-1.015, -4.879e-5
-1.016, -4.867e-5
-1.017, -4.855e-5
-1.018, -4.843e-5
-1.019, -4.831e-5
-1.020, -4.819e-5
-1.021, -4.808e-5
-1.022, -4.796e-5
-1.023, -4.785e-5
-1.024, -4.773e-5
-1.025, -4.762e-5
-1.026, -4.751e-5
-1.027, -4.738e-5
-1.028, -4.728e-5
-1.029, -4.717e-5
-1.030, -4.705e-5
-1.031, -4.694e-5
-1.032, -4.683e-5
-1.033, -4.672e-5
-1.034, -4.661e-5
-1.035, -4.649e-5
-1.036, -4.639e-5
-1.037, -4.628e-5
-1.038, -4.618e-5
-1.039, -4.607e-5
-1.040, -4.596e-5
-1.041, -4.587e-5
-1.042, -4.576e-5
-1.043, -4.565e-5
-1.044, -4.555e-5
-1.045, -4.545e-5
-1.046, -4.535e-5
-1.047, -4.524e-5
-1.048, -4.515e-5
-1.049, -4.504e-5
-1.050, -4.494e-5
-1.051, -4.486e-5
-1.052, -4.475e-5
-1.053, -4.466e-5
-1.054, -4.457e-5
-1.055, -4.447e-5
-1.056, -4.439e-5
-1.057, -4.428e-5
-1.058, -4.419e-5
-1.059, -4.410e-5
-1.060, -4.400e-5
-1.061, -4.393e-5
-1.062, -4.382e-5
-1.063, -4.374e-5
-1.064, -4.365e-5
-1.065, -4.356e-5
-1.066, -4.348e-5
-1.067, -4.339e-5
-1.068, -4.330e-5
-1.069, -4.322e-5
-1.070, -4.313e-5
-1.071, -4.305e-5
-1.072, -4.296e-5
-1.073, -4.288e-5
-1.074, -4.280e-5
-1.075, -4.271e-5
-1.076, -4.264e-5
-1.077, -4.255e-5
-1.078, -4.248e-5
-1.079, -4.239e-5
-1.080, -4.231e-5
-1.081, -4.224e-5
-1.082, -4.215e-5
-1.083, -4.209e-5
-1.084, -4.201e-5
-1.085, -4.193e-5
-1.086, -4.186e-5
-1.087, -4.178e-5
-1.088, -4.170e-5
-1.089, -4.163e-5
-1.090, -4.155e-5
-1.091, -4.149e-5
-1.092, -4.141e-5
-1.093, -4.134e-5
-1.094, -4.127e-5
-1.095, -4.119e-5
-1.096, -4.113e-5
-1.097, -4.105e-5
-1.098, -4.099e-5
-1.099, -4.092e-5
-1.100, -4.085e-5
-1.101, -4.079e-5
-1.102, -4.072e-5
-1.103, -4.065e-5
-1.104, -4.059e-5
-1.105, -4.052e-5
-1.106, -4.046e-5
-1.107, -4.039e-5
-1.108, -4.033e-5
-1.109, -4.027e-5
-1.110, -4.020e-5
-1.111, -4.014e-5
-1.112, -4.007e-5
-1.113, -4.002e-5
-1.114, -3.996e-5
-1.115, -3.989e-5
-1.116, -3.984e-5
-1.117, -3.977e-5
-1.118, -3.971e-5
-1.119, -3.965e-5
-1.120, -3.959e-5
-1.121, -3.954e-5
-1.122, -3.947e-5
-1.123, -3.941e-5
-1.124, -3.936e-5
-1.125, -3.930e-5
-1.126, -3.925e-5
-1.127, -3.919e-5
-1.128, -3.914e-5
-1.129, -3.908e-5
-1.130, -3.902e-5
-1.131, -3.898e-5
-1.132, -3.891e-5
-1.133, -3.886e-5
-1.134, -3.881e-5
-1.135, -3.875e-5
-1.136, -3.870e-5
-1.137, -3.864e-5
-1.138, -3.860e-5
-1.139, -3.855e-5
-1.140, -3.849e-5
-1.141, -3.844e-5
-1.142, -3.839e-5
-1.143, -3.834e-5
-1.144, -3.829e-5
-1.145, -3.823e-5
-1.146, -3.819e-5
-1.147, -3.814e-5
-1.148, -3.809e-5
-1.149, -3.804e-5
-1.150, -3.799e-5
-1.151, -3.795e-5
-1.152, -3.789e-5
-1.153, -3.785e-5
-1.154, -3.780e-5
-1.155, -3.775e-5
-1.156, -3.771e-5
-1.157, -3.766e-5
-1.158, -3.762e-5
-1.159, -3.758e-5
-1.160, -3.752e-5
-1.161, -3.748e-5
-1.162, -3.743e-5
-1.163, -3.739e-5
-1.164, -3.735e-5
-1.165, -3.730e-5
-1.166, -3.727e-5
-1.167, -3.721e-5
-1.168, -3.717e-5
-1.169, -3.713e-5
-1.170, -3.708e-5
-1.171, -3.705e-5
-1.172, -3.700e-5
-1.173, -3.696e-5
-1.174, -3.692e-5
-1.175, -3.688e-5
-1.176, -3.685e-5
-1.177, -3.680e-5
-1.178, -3.676e-5
-1.179, -3.673e-5
-1.180, -3.668e-5
-1.181, -3.665e-5
-1.182, -3.660e-5
-1.183, -3.656e-5
-1.184, -3.653e-5
-1.185, -3.648e-5
-1.186, -3.645e-5
-1.187, -3.641e-5
-1.188, -3.637e-5
-1.189, -3.634e-5
-1.190, -3.629e-5
-1.191, -3.627e-5
-1.192, -3.622e-5
-1.193, -3.619e-5
-1.194, -3.615e-5
-1.195, -3.611e-5
-1.196, -3.608e-5
-1.197, -3.604e-5
-1.198, -3.600e-5
-1.199, -3.597e-5
-1.200, -3.587e-5
-1.199, -3.577e-5
-1.198, -3.568e-5
-1.197, -3.561e-5
-1.196, -3.554e-5
-1.195, -3.547e-5
-1.194, -3.542e-5
-1.193, -3.534e-5
-1.192, -3.528e-5
-1.191, -3.523e-5
-1.190, -3.516e-5
-1.189, -3.511e-5
-1.188, -3.504e-5
-1.187, -3.499e-5
-1.186, -3.494e-5
-1.185, -3.487e-5
-1.184, -3.482e-5
-1.183, -3.476e-5
-1.182, -3.471e-5
-1.181, -3.466e-5
-1.180, -3.460e-5
-1.179, -3.456e-5
-1.178, -3.450e-5
-1.177, -3.445e-5
-1.176, -3.440e-5
-1.175, -3.434e-5
-1.174, -3.430e-5
-1.173, -3.424e-5
-1.172, -3.420e-5
-1.171, -3.415e-5
-1.170, -3.409e-5
-1.169, -3.405e-5
-1.168, -3.399e-5
-1.167, -3.395e-5
-1.166, -3.390e-5
-1.165, -3.385e-5
-1.164, -3.381e-5
-1.163, -3.376e-5
-1.162, -3.372e-5
-1.161, -3.367e-5
-1.160, -3.361e-5
-1.159, -3.358e-5
-1.158, -3.353e-5
-1.157, -3.349e-5
-1.156, -3.345e-5
-1.155, -3.339e-5
-1.154, -3.336e-5
-1.153, -3.330e-5
-1.152, -3.326e-5
-1.151, -3.323e-5
-1.150, -3.317e-5
-1.149, -3.314e-5
-1.148, -3.308e-5
-1.147, -3.304e-5
-1.146, -3.301e-5
-1.145, -3.296e-5
-1.144, -3.293e-5
-1.143, -3.288e-5
-1.142, -3.284e-5
-1.141, -3.280e-5
-1.140, -3.275e-5
-1.139, -3.272e-5
-1.138, -3.267e-5
-1.137, -3.263e-5
-1.136, -3.259e-5
-1.135, -3.254e-5
-1.134, -3.251e-5
-1.133, -3.247e-5
-1.132, -3.243e-5
-1.131, -3.239e-5
-1.130, -3.234e-5
-1.129, -3.231e-5
-1.128, -3.226e-5
-1.127, -3.223e-5
-1.126, -3.219e-5
-1.125, -3.214e-5
-1.124, -3.211e-5
-1.123, -3.206e-5
-1.122, -3.202e-5
-1.121, -3.199e-5
-1.120, -3.194e-5
-1.119, -3.191e-5
-1.118, -3.186e-5
-1.117, -3.183e-5
-1.116, -3.179e-5
-1.115, -3.175e-5
-1.114, -3.173e-5
-1.113, -3.167e-5
-1.112, -3.164e-5
-1.111, -3.161e-5
-1.110, -3.156e-5
-1.109, -3.153e-5
-1.108, -3.149e-5
-1.107, -3.145e-5
-1.106, -3.141e-5
-1.105, -3.137e-5
-1.104, -3.134e-5
-1.103, -3.130e-5
-1.102, -3.127e-5
-1.101, -3.123e-5
-1.100, -3.118e-5
-1.099, -3.115e-5
-1.098, -3.111e-5
-1.097, -3.107e-5
-1.096, -3.104e-5
-1.095, -3.099e-5
-1.094, -3.096e-5
-1.093, -3.092e-5
-1.092, -3.088e-5
-1.091, -3.085e-5
-1.090, -3.080e-5
-1.089, -3.078e-5
-1.088, -3.073e-5
-1.087, -3.069e-5
-1.086, -3.066e-5
-1.085, -3.062e-5
-1.084, -3.059e-5
-1.083, -3.055e-5
-1.082, -3.051e-5
-1.081, -3.048e-5
-1.080, -3.044e-5
-1.079, -3.041e-5
-1.078, -3.036e-5
-1.077, -3.033e-5
-1.076, -3.030e-5
-1.075, -3.024e-5
-1.074, -3.022e-5
-1.073, -3.017e-5
-1.072, -3.014e-5
-1.071, -3.010e-5
-1.070, -3.006e-5
-1.069, -3.003e-5
-1.068, -2.998e-5
-1.067, -2.994e-5
-1.066, -2.991e-5
-1.065, -2.986e-5
-1.064, -2.984e-5
-1.063, -2.980e-5
-1.062, -2.975e-5
-1.061, -2.972e-5
-1.060, -2.967e-5
-1.059, -2.964e-5
-1.058, -2.960e-5
-1.057, -2.956e-5
-1.056, -2.953e-5
-1.055, -2.948e-5
-1.054, -2.945e-5
-1.053, -2.940e-5
-1.052, -2.936e-5
-1.051, -2.933e-5
-1.050, -2.928e-5
-1.049, -2.925e-5
-1.048, -2.920e-5
-1.047, -2.916e-5
-1.046, -2.913e-5
-1.045, -2.908e-5
-1.044, -2.905e-5
-1.043, -2.900e-5
-1.042, -2.896e-5
-1.041, -2.893e-5
-1.040, -2.887e-5
-1.039, -2.885e-5
-1.038, -2.880e-5
-1.037, -2.875e-5
-1.036, -2.871e-5
-1.035, -2.866e-5
-1.034, -2.863e-5
-1.033, -2.858e-5
-1.032, -2.853e-5
-1.031, -2.849e-5
-1.030, -2.844e-5
-1.029, -2.840e-5
-1.028, -2.835e-5
-1.027, -2.830e-5
-1.026, -2.826e-5
-1.025, -2.820e-5
-1.024, -2.816e-5
-1.023, -2.811e-5
-1.022, -2.806e-5
-1.021, -2.802e-5
-1.020, -2.796e-5
-1.019, -2.792e-5
-1.018, -2.787e-5
-1.017, -2.782e-5
-1.016, -2.776e-5
-1.015, -2.771e-5
-1.014, -2.766e-5
-1.013, -2.760e-5
-1.012, -2.755e-5
-1.011, -2.750e-5
-1.010, -2.743e-5
-1.009, -2.739e-5
-1.008, -2.732e-5
-1.007, -2.726e-5
-1.006, -2.721e-5
-1.005, -2.714e-5
-1.004, -2.709e-5
-1.003, -2.702e-5
-1.002, -2.696e-5
-1.001, -2.690e-5
-1.000, -2.683e-5
-0.999, -2.677e-5
-0.998, -2.671e-5
-0.997, -2.664e-5
-0.996, -2.657e-5
-0.995, -2.649e-5
-0.994, -2.643e-5
-0.993, -2.635e-5
-0.992, -2.628e-5
-0.991, -2.621e-5
-0.990, -2.613e-5
-0.989, -2.606e-5
-0.988, -2.597e-5
-0.987, -2.590e-5
-0.986, -2.582e-5
-0.985, -2.573e-5
-0.984, -2.565e-5
-0.983, -2.556e-5
-0.982, -2.547e-5
-0.981, -2.538e-5
-0.980, -2.529e-5
-0.979, -2.521e-5
-0.978, -2.511e-5
-0.977, -2.501e-5
-0.976, -2.492e-5
-0.975, -2.481e-5
-0.974, -2.471e-5
-0.973, -2.460e-5
-0.972, -2.449e-5
-0.971, -2.438e-5
-0.970, -2.427e-5
-0.969, -2.417e-5
-0.968, -2.404e-5
-0.967, -2.393e-5
-0.966, -2.381e-5
-0.965, -2.368e-5
-0.964, -2.356e-5
-0.963, -2.343e-5
-0.962, -2.330e-5
-0.961, -2.316e-5
-0.960, -2.302e-5
-0.959, -2.289e-5
-0.958, -2.273e-5
-0.957, -2.259e-5
-0.956, -2.244e-5
-0.955, -2.228e-5
-0.954, -2.213e-5
-0.953, -2.197e-5
-0.952, -2.181e-5
-0.951, -2.163e-5
-0.950, -2.147e-5
-0.949, -2.129e-5
-0.948, -2.111e-5
-0.947, -2.096e-5
-0.946, -2.075e-5
-0.945, -2.056e-5
-0.944, -2.036e-5
-0.943, -2.017e-5
-0.942, -1.996e-5
-0.941, -1.975e-5
-0.940, -1.954e-5
-0.939, -1.932e-5
-0.938, -1.909e-5
-0.937, -1.887e-5
-0.936, -1.862e-5
-0.935, -1.840e-5
-0.934, -1.815e-5
-0.933, -1.789e-5
-0.932, -1.765e-5
-0.931, -1.738e-5
-0.930, -1.713e-5
-0.929, -1.685e-5
-0.928, -1.658e-5
-0.927, -1.631e-5
-0.926, -1.601e-5
-0.925, -1.573e-5
-0.924, -1.543e-5
-0.923, -1.511e-5
-0.922, -1.480e-5
-0.921, -1.446e-5
-0.920, -1.415e-5
-0.919, -1.382e-5
-0.918, -1.348e-5
-0.917, -1.316e-5
-0.916, -1.279e-5
-0.915, -1.245e-5
-0.914, -1.209e-5
-0.913, -1.172e-5
-0.912, -1.135e-5
-0.911, -1.096e-5
-0.910, -1.057e-5
-0.909, -1.017e-5
-0.908, -9.774e-6
-0.907, -9.382e-6
-0.906, -8.949e-6
-0.905, -8.547e-6
-0.904, -8.106e-6
-0.903, -7.665e-6
-0.902, -7.243e-6
-0.901, -6.761e-6
-0.900, -6.325e-6
-0.899, -5.868e-6
-0.898, -5.404e-6
-0.897, -4.944e-6
-0.896, -4.477e-6
-0.895, -4.020e-6
-0.894, -3.515e-6
-0.893, -3.012e-6
-0.892, -2.531e-6
-0.891, -1.988e-6
-0.890, -1.510e-6
-0.889, -9.872e-7
-0.888, -4.561e-7
-0.887, 5.202e-8
-0.886, 6.110e-7
-0.885, 1.118e-6
-0.884, 1.670e-6
-0.883, 2.223e-6
-0.882, 2.755e-6
-0.881, 3.337e-6
-0.880, 3.855e-6
-0.879, 4.415e-6
-0.878, 4.998e-6
-0.877, 5.533e-6
-0.876, 6.112e-6
-0.875, 6.671e-6
-0.874, 7.229e-6
-0.873, 7.800e-6
-0.872, 8.349e-6
-0.871, 8.954e-6
-0.870, 9.544e-6
-0.869, 1.012e-5
-0.868, 1.069e-5
-0.867, 1.122e-5
-0.866, 1.181e-5
-0.865, 1.233e-5
-0.864, 1.291e-5
-0.863, 1.345e-5
-0.862, 1.399e-5
-0.861, 1.455e-5
-0.860, 1.506e-5
-0.859, 1.562e-5
-0.858, 1.616e-5
-0.857, 1.666e-5
-0.856, 1.722e-5
-0.855, 1.770e-5
-0.854, 1.821e-5
-0.853, 1.872e-5
-0.852, 1.919e-5
-0.851, 1.969e-5
-0.850, 2.013e-5
-0.849, 2.061e-5
-0.848, 2.107e-5
-0.847, 2.148e-5
-0.846, 2.197e-5
-0.845, 2.232e-5
-0.844, 2.273e-5
-0.843, 2.315e-5
-0.842, 2.353e-5
-0.841, 2.394e-5
-0.840, 2.428e-5
-0.839, 2.464e-5
-0.838, 2.498e-5
-0.837, 2.528e-5
-0.836, 2.563e-5
-0.835, 2.592e-5
-0.834, 2.623e-5
-0.833, 2.652e-5
-0.832, 2.676e-5
-0.831, 2.703e-5
-0.830, 2.726e-5
-0.829, 2.750e-5
-0.828, 2.770e-5
-0.827, 2.789e-5
-0.826, 2.810e-5
-0.825, 2.823e-5
-0.824, 2.841e-5
-0.823, 2.855e-5
-0.822, 2.866e-5
-0.821, 2.880e-5
-0.820, 2.889e-5
-0.819, 2.887e-5
-0.818, 2.897e-5
-0.817, 2.903e-5
-0.816, 2.911e-5
-0.815, 2.914e-5
-0.814, 2.918e-5
-0.813, 2.920e-5
-0.812, 2.918e-5
-0.811, 2.921e-5
-0.810, 2.917e-5
-0.809, 2.915e-5
-0.808, 2.912e-5
-0.807, 2.906e-5
-0.806, 2.903e-5
-0.805, 2.896e-5
-0.804, 2.888e-5
-0.803, 2.878e-5
-0.802, 2.868e-5
-0.801, 2.860e-5
-0.800, 2.848e-5
-0.799, 2.836e-5
-0.798, 2.824e-5
-0.797, 2.808e-5
-0.796, 2.796e-5
-0.795, 2.781e-5
-0.794, 2.765e-5
-0.793, 2.747e-5
-0.792, 2.732e-5
-0.791, 2.717e-5
-0.790, 2.699e-5
-0.789, 2.682e-5
-0.788, 2.665e-5
-0.787, 2.646e-5
-0.786, 2.628e-5
-0.785, 2.609e-5
-0.784, 2.590e-5
-0.783, 2.571e-5
-0.782, 2.552e-5
-0.781, 2.533e-5
-0.780, 2.513e-5
-0.779, 2.493e-5
-0.778, 2.473e-5
-0.777, 2.453e-5
-0.776, 2.433e-5
-0.775, 2.412e-5
-0.774, 2.392e-5
-0.773, 2.372e-5
-0.772, 2.351e-5
-0.771, 2.331e-5
-0.770, 2.311e-5
-0.769, 2.291e-5
-0.768, 2.273e-5
-0.767, 2.252e-5
-0.766, 2.232e-5
-0.765, 2.212e-5
-0.764, 2.191e-5
-0.763, 2.172e-5
-0.762, 2.153e-5
-0.761, 2.133e-5
-0.760, 2.114e-5
-0.759, 2.095e-5
-0.758, 2.076e-5
-0.757, 2.057e-5
-0.756, 2.038e-5
-0.755, 2.020e-5
-0.754, 2.001e-5
-0.753, 1.983e-5
-0.752, 1.965e-5
-0.751, 1.947e-5
-0.750, 1.930e-5
-0.749, 1.911e-5
-0.748, 1.895e-5
-0.747, 1.878e-5
-0.746, 1.860e-5
-0.745, 1.844e-5
-0.744, 1.827e-5
-0.743, 1.810e-5
-0.742, 1.794e-5
-0.741, 1.778e-5
-0.740, 1.763e-5
-0.739, 1.747e-5
-0.738, 1.732e-5
-0.737, 1.717e-5
-0.736, 1.701e-5
-0.735, 1.687e-5
-0.734, 1.672e-5
-0.733, 1.658e-5
-0.732, 1.644e-5
-0.731, 1.629e-5
-0.730, 1.616e-5
-0.729, 1.601e-5
-0.728, 1.588e-5
-0.727, 1.575e-5
-0.726, 1.561e-5
-0.725, 1.549e-5
-0.724, 1.535e-5
-0.723, 1.522e-5
-0.722, 1.510e-5
-0.721, 1.497e-5
-0.720, 1.486e-5
-0.719, 1.473e-5
-0.718, 1.462e-5
-0.717, 1.450e-5
-0.716, 1.438e-5
-0.715, 1.427e-5
-0.714, 1.415e-5
-0.713, 1.404e-5
-0.712, 1.393e-5
-0.711, 1.382e-5
-0.710, 1.372e-5
-0.709, 1.361e-5
-0.708, 1.350e-5
-0.707, 1.340e-5
-0.706, 1.329e-5
-0.705, 1.320e-5
-0.704, 1.309e-5
-0.703, 1.300e-5
-0.702, 1.290e-5
-0.701, 1.280e-5
-0.700, 1.271e-5
-0.699, 1.261e-5
-0.698, 1.251e-5
-0.697, 1.243e-5
-0.696, 1.233e-5
-0.695, 1.225e-5
-0.694, 1.215e-5
-0.693, 1.206e-5
-0.692, 1.198e-5
-0.691, 1.189e-5
-0.690, 1.181e-5
-0.689, 1.172e-5
-0.688, 1.164e-5
-0.687, 1.156e-5
-0.686, 1.148e-5
-0.685, 1.141e-5
-0.684, 1.132e-5
-0.683, 1.125e-5
-0.682, 1.117e-5
-0.681, 1.108e-5
-0.680, 1.102e-5
-0.679, 1.094e-5
-0.678, 1.087e-5
-0.677, 1.080e-5
-0.676, 1.071e-5
-0.675, 1.065e-5
-0.674, 1.057e-5
-0.673, 1.051e-5
-0.672, 1.044e-5
-0.671, 1.036e-5
-0.670, 1.031e-5
-0.669, 1.023e-5
-0.668, 1.017e-5
-0.667, 1.010e-5
-0.666, 1.003e-5
-0.665, 9.978e-6
-0.664, 9.904e-6
-0.663, 9.845e-6
-0.662, 9.790e-6
-0.661, 9.721e-6
-0.660, 9.671e-6
-0.659, 9.597e-6
-0.658, 9.546e-6
-0.657, 9.489e-6
-0.656, 9.422e-6
-0.655, 9.374e-6
-0.654, 9.309e-6
-0.653, 9.254e-6
-0.652, 9.202e-6
-0.651, 9.133e-6
-0.650, 9.092e-6
-0.649, 9.029e-6
-0.648, 8.979e-6
-0.647, 8.926e-6
-0.646, 8.864e-6
-0.645, 8.824e-6
-0.644, 8.762e-6
-0.643, 8.714e-6
-0.642, 8.665e-6
-0.641, 8.606e-6
-0.640, 8.569e-6
-0.639, 8.508e-6
-0.638, 8.465e-6
-0.637, 8.417e-6
-0.636, 8.363e-6
-0.635, 8.329e-6
-0.634, 8.271e-6
-0.633, 8.229e-6
-0.632, 8.184e-6
-0.631, 8.128e-6
-0.630, 8.099e-6
-0.629, 8.045e-6
-0.628, 8.005e-6
-0.627, 7.964e-6
-0.626, 7.907e-6
-0.625, 7.876e-6
-0.624, 7.825e-6
-0.623, 7.786e-6
-0.622, 7.748e-6
-0.621, 7.695e-6
-0.620, 7.663e-6
-0.619, 7.618e-6
-0.618, 7.584e-6
-0.617, 7.547e-6
-0.616, 7.499e-6
-0.615, 7.471e-6
-0.614, 7.420e-6
-0.613, 7.387e-6
-0.612, 7.356e-6
-0.611, 7.310e-6
-0.610, 7.286e-6
-0.609, 7.241e-6
-0.608, 7.205e-6
-0.607, 7.172e-6
-0.606, 7.132e-6
-0.605, 7.110e-6
-0.604, 7.066e-6
-0.603, 7.037e-6
-0.602, 7.006e-6
-0.601, 6.963e-6
-0.600, 6.940e-6
-0.599, 6.899e-6
-0.598, 6.872e-6
-0.597, 6.846e-6
-0.596, 6.803e-6
-0.595, 6.785e-6
-0.594, 6.745e-6
-0.593, 6.718e-6
-0.592, 6.689e-6
-0.591, 6.654e-6
-0.590, 6.639e-6
-0.589, 6.604e-6
-0.588, 6.579e-6
-0.587, 6.558e-6
-0.586, 6.521e-6
-0.585, 6.507e-6
-0.584, 6.473e-6
-0.583, 6.450e-6
-0.582, 6.429e-6
-0.581, 6.396e-6
-0.580, 6.385e-6
-0.579, 6.352e-6
-0.578, 6.333e-6
-0.577, 6.316e-6
-0.576, 6.284e-6
-0.575, 6.276e-6
-0.574, 6.245e-6
-0.573, 6.228e-6
-0.572, 6.212e-6
-0.571, 6.187e-6
-0.570, 6.181e-6
-0.569, 6.159e-6
-0.568, 6.149e-6
-0.567, 6.138e-6
-0.566, 6.116e-6
-0.565, 6.116e-6
-0.564, 6.094e-6
-0.563, 6.091e-6
-0.562, 6.083e-6
-0.561, 6.067e-6
-0.560, 6.071e-6
-0.559, 6.056e-6
-0.558, 6.056e-6
-0.557, 6.054e-6
-0.556, 6.045e-6
-0.555, 6.057e-6
-0.554, 6.051e-6
-0.553, 6.056e-6
-0.552, 6.068e-6
-0.551, 6.066e-6
-0.550, 6.089e-6
-0.549, 6.093e-6
-0.548, 6.111e-6
-0.547, 6.132e-6
-0.546, 6.145e-6
-0.545, 6.176e-6
-0.544, 6.192e-6
-0.543, 6.225e-6
-0.542, 6.265e-6
-0.541, 6.294e-6
-0.540, 6.342e-6
-0.539, 6.379e-6
-0.538, 6.424e-6
-0.537, 6.475e-6
-0.536, 6.525e-6
-0.535, 6.589e-6
-0.534, 6.641e-6
-0.533, 6.704e-6
-0.532, 6.775e-6
-0.531, 6.837e-6
-0.530, 6.917e-6
-0.529, 6.988e-6
-0.528, 7.072e-6
-0.527, 7.149e-6
-0.526, 7.231e-6
-0.525, 7.329e-6
-0.524, 7.408e-6
-0.523, 7.510e-6
-0.522, 7.605e-6
-0.521, 7.698e-6
-0.520, 7.812e-6
-0.519, 7.906e-6
-0.518, 8.019e-6
-0.517, 8.127e-6
-0.516, 8.237e-6
-0.515, 8.357e-6
-0.514, 8.470e-6
-0.513, 8.595e-6
-0.512, 8.727e-6
-0.511, 8.847e-6
-0.510, 8.986e-6
-0.509, 9.107e-6
-0.508, 9.246e-6
-0.507, 9.388e-6
-0.506, 9.521e-6
-0.505, 9.669e-6
-0.504, 9.812e-6
-0.503, 9.963e-6
-0.502, 1.011e-5
-0.501, 1.027e-5
-0.500, 1.012e-5
-0.501, 9.540e-6
-0.502, 9.115e-6
-0.503, 8.761e-6
-0.504, 8.447e-6
-0.505, 8.175e-6
-0.506, 7.914e-6
-0.507, 7.676e-6
-0.508, 7.455e-6
-0.509, 7.246e-6
-0.510, 7.056e-6
-0.511, 6.863e-6
-0.512, 6.681e-6
-0.513, 6.516e-6
-0.514, 6.347e-6
-0.515, 6.199e-6
-0.516, 6.047e-6
-0.517, 5.909e-6
-0.518, 5.775e-6
-0.519, 5.639e-6
-0.520, 5.516e-6
-0.521, 5.386e-6
-0.522, 5.270e-6
-0.523, 5.159e-6
-0.524, 5.042e-6
-0.525, 4.941e-6
-0.526, 4.832e-6
-0.527, 4.732e-6
-0.528, 4.643e-6
-0.529, 4.542e-6
-0.530, 4.461e-6
-0.531, 4.370e-6
-0.532, 4.286e-6
-0.533, 4.208e-6
-0.534, 4.123e-6
-0.535, 4.058e-6
-0.536, 3.972e-6
-0.537, 3.907e-6
-0.538, 3.846e-6
-0.539, 3.766e-6
-0.540, 3.717e-6
-0.541, 3.651e-6
-0.542, 3.596e-6
-0.543, 3.541e-6
-0.544, 3.480e-6
-0.545, 3.440e-6
-0.546, 3.387e-6
-0.547, 3.341e-6
-0.548, 3.301e-6
-0.549, 3.249e-6
-0.550, 3.224e-6
-0.551, 3.179e-6
-0.552, 3.146e-6
-0.553, 3.116e-6
-0.554, 3.073e-6
-0.555, 3.050e-6
-0.556, 3.014e-6
-0.557, 2.990e-6
-0.558, 2.969e-6
-0.559, 2.935e-6
-0.560, 2.922e-6
-0.561, 2.891e-6
-0.562, 2.872e-6
-0.563, 2.852e-6
-0.564, 2.821e-6
-0.565, 2.813e-6
-0.566, 2.787e-6
-0.567, 2.772e-6
-0.568, 2.761e-6
-0.569, 2.737e-6
-0.570, 2.733e-6
-0.571, 2.710e-6
-0.572, 2.697e-6
-0.573, 2.689e-6
-0.574, 2.663e-6
-0.575, 2.660e-6
-0.576, 2.639e-6
-0.577, 2.629e-6
-0.578, 2.619e-6
-0.579, 2.598e-6
-0.580, 2.595e-6
-0.581, 2.574e-6
-0.582, 2.562e-6
-0.583, 2.555e-6
-0.584, 2.531e-6
-0.585, 2.532e-6
-0.586, 2.513e-6
-0.587, 2.504e-6
-0.588, 2.498e-6
-0.589, 2.480e-6
-0.590, 2.477e-6
-0.591, 2.461e-6
-0.592, 2.450e-6
-0.593, 2.446e-6
-0.594, 2.422e-6
-0.595, 2.424e-6
-0.596, 2.406e-6
-0.597, 2.397e-6
-0.598, 2.392e-6
-0.599, 2.370e-6
-0.600, 2.372e-6
-0.601, 2.352e-6
-0.602, 2.343e-6
-0.603, 2.337e-6
-0.604, 2.315e-6
-0.605, 2.318e-6
-0.606, 2.297e-6
-0.607, 2.289e-6
-0.608, 2.285e-6
-0.609, 2.267e-6
-0.610, 2.269e-6
-0.611, 2.252e-6
-0.612, 2.244e-6
-0.613, 2.239e-6
-0.614, 2.218e-6
-0.615, 2.221e-6
-0.616, 2.203e-6
-0.617, 2.194e-6
-0.618, 2.191e-6
-0.619, 2.168e-6
-0.620, 2.172e-6
-0.621, 2.153e-6
-0.622, 2.146e-6
-0.623, 2.142e-6
-0.624, 2.122e-6
-0.625, 2.123e-6
-0.626, 2.106e-6
-0.627, 2.097e-6
-0.628, 2.093e-6
-0.629, 2.070e-6
-0.630, 2.073e-6
-0.631, 2.053e-6
-0.632, 2.046e-6
-0.633, 2.042e-6
-0.634, 2.023e-6
-0.635, 2.025e-6
-0.636, 2.009e-6
-0.637, 1.999e-6
-0.638, 1.996e-6
-0.639, 1.977e-6
-0.640, 1.980e-6
-0.641, 1.961e-6
-0.642, 1.954e-6
-0.643, 1.948e-6
-0.644, 1.929e-6
-0.645, 1.930e-6
-0.646, 1.914e-6
-0.647, 1.905e-6
-0.648, 1.898e-6
-0.649, 1.878e-6
-0.650, 1.881e-6
-0.651, 1.860e-6
-0.652, 1.850e-6
-0.653, 1.845e-6
-0.654, 1.823e-6
-0.655, 1.823e-6
-0.656, 1.806e-6
-0.657, 1.795e-6
-0.658, 1.792e-6
-0.659, 1.771e-6
-0.660, 1.773e-6
-0.661, 1.755e-6
-0.662, 1.746e-6
-0.663, 1.741e-6
-0.664, 1.720e-6
-0.665, 1.720e-6
-0.666, 1.702e-6
-0.667, 1.691e-6
-0.668, 1.687e-6
-0.669, 1.664e-6
-0.670, 1.665e-6
-0.671, 1.645e-6
-0.672, 1.634e-6
-0.673, 1.629e-6
-0.674, 1.604e-6
-0.675, 1.604e-6
-0.676, 1.582e-6
-0.677, 1.572e-6
-0.678, 1.563e-6
-0.679, 1.540e-6
-0.680, 1.539e-6
-0.681, 1.520e-6
-0.682, 1.507e-6
-0.683, 1.500e-6
-0.684, 1.477e-6
-0.685, 1.477e-6
-0.686, 1.455e-6
-0.687, 1.443e-6
-0.688, 1.434e-6
-0.689, 1.409e-6
-0.690, 1.407e-6
-0.691, 1.386e-6
-0.692, 1.369e-6
-0.693, 1.360e-6
-0.694, 1.333e-6
-0.695, 1.330e-6
-0.696, 1.308e-6
-0.697, 1.294e-6
-0.698, 1.284e-6
-0.699, 1.258e-6
-0.700, 1.254e-6
-0.701, 1.229e-6
-0.702, 1.214e-6
-0.703, 1.200e-6
-0.704, 1.171e-6
-0.705, 1.164e-6
-0.706, 1.139e-6
-0.707, 1.119e-6
-0.708, 1.105e-6
-0.709, 1.074e-6
-0.710, 1.066e-6
-0.711, 1.038e-6
-0.712, 1.019e-6
-0.713, 1.004e-6
-0.714, 9.748e-7
-0.715, 9.635e-7
-0.716, 9.365e-7
-0.717, 9.113e-7
-0.718, 8.926e-7
-0.719, 8.564e-7
-0.720, 8.432e-7
-0.721, 8.125e-7
-0.722, 7.906e-7
-0.723, 7.697e-7
-0.724, 7.365e-7
-0.725, 7.190e-7
-0.726, 6.848e-7
-0.727, 6.555e-7
-0.728, 6.311e-7
-0.729, 5.884e-7
-0.730, 5.679e-7
-0.731, 5.279e-7
-0.732, 5.025e-7
-0.733, 4.748e-7
-0.734, 4.347e-7
-0.735, 4.100e-7
-0.736, 3.687e-7
-0.737, 3.342e-7
-0.738, 3.053e-7
-0.739, 2.604e-7
-0.740, 2.325e-7
-0.741, 1.857e-7
-0.742, 1.461e-7
-0.743, 1.065e-7
-0.744, 5.334e-8
-0.745, 1.885e-8
-0.746, -3.251e-8
-0.747, -8.037e-8
-0.748, -1.270e-7
-0.749, -1.814e-7
-0.750, -2.220e-7
-0.751, -2.804e-7
-0.752, -3.349e-7
-0.753, -3.910e-7
-0.754, -4.562e-7
-0.755, -5.028e-7
-0.756, -5.708e-7
-0.757, -6.326e-7
-0.758, -6.896e-7
-0.759, -7.572e-7
-0.760, -8.216e-7
-0.761, -8.970e-7
-0.762, -9.632e-7
-0.763, -1.039e-6
-0.764, -1.122e-6
-0.765, -1.189e-6
-0.766, -1.278e-6
-0.767, -1.360e-6
-0.768, -1.451e-6
-0.769, -1.542e-6
-0.770, -1.626e-6
-0.771, -1.723e-6
-0.772, -1.817e-6
-0.773, -1.915e-6
-0.774, -2.018e-6
-0.775, -2.115e-6
-0.776, -2.230e-6
-0.777, -2.338e-6
-0.778, -2.447e-6
-0.779, -2.571e-6
-0.780, -2.686e-6
-0.781, -2.823e-6
-0.782, -2.946e-6
-0.783, -3.078e-6
-0.784, -3.212e-6
-0.785, -3.346e-6
-0.786, -3.500e-6
-0.787, -3.634e-6
-0.788, -3.790e-6
-0.789, -3.955e-6
-0.790, -4.113e-6
-0.791, -4.279e-6
-0.792, -4.448e-6
-0.793, -4.615e-6
-0.794, -4.780e-6
-0.795, -4.965e-6
-0.796, -5.156e-6
-0.797, -5.339e-6
-0.798, -5.542e-6
-0.799, -5.742e-6
-0.800, -5.949e-6
-0.801, -6.161e-6
-0.802, -6.376e-6
-0.803, -6.606e-6
-0.804, -6.828e-6
-0.805, -7.062e-6
-0.806, -7.304e-6
-0.807, -7.541e-6
-0.808, -7.802e-6
-0.809, -8.050e-6
-0.810, -8.307e-6
-0.811, -8.583e-6
-0.812, -8.847e-6
-0.813, -9.134e-6
-0.814, -9.414e-6
-0.815, -9.699e-6
-0.816, -9.999e-6
-0.817, -1.029e-5
-0.818, -1.061e-5
-0.819, -1.087e-5
-0.820, -1.116e-5
-0.821, -1.151e-5
-0.822, -1.183e-5
-0.823, -1.217e-5
-0.824, -1.251e-5
-0.825, -1.286e-5
-0.826, -1.321e-5
-0.827, -1.356e-5
-0.828, -1.394e-5
-0.829, -1.429e-5
-0.830, -1.466e-5
-0.831, -1.505e-5
-0.832, -1.542e-5
-0.833, -1.582e-5
-0.834, -1.620e-5
-0.835, -1.661e-5
-0.836, -1.701e-5
-0.837, -1.740e-5
-0.838, -1.782e-5
-0.839, -1.822e-5
-0.840, -1.865e-5
-0.841, -1.907e-5
-0.842, -1.948e-5
-0.843, -1.992e-5
-0.844, -2.034e-5
-0.845, -2.073e-5
-0.846, -2.118e-5
-0.847, -2.161e-5
-0.848, -2.206e-5
-0.849, -2.249e-5
-0.850, -2.294e-5
-0.851, -2.339e-5
-0.852, -2.382e-5
-0.853, -2.430e-5
-0.854, -2.473e-5
-0.855, -2.517e-5
-0.856, -2.563e-5
-0.857, -2.607e-5
-0.858, -2.654e-5
-0.859, -2.698e-5
-0.860, -2.743e-5
-0.861, -2.788e-5
-0.862, -2.831e-5
-0.863, -2.877e-5
-0.864, -2.919e-5
-0.865, -2.963e-5
-0.866, -3.008e-5
-0.867, -3.050e-5
-0.868, -3.095e-5
-0.869, -3.137e-5
-0.870, -3.181e-5
-0.871, -3.228e-5
-0.872, -3.267e-5
-0.873, -3.309e-5
-0.874, -3.347e-5
-0.875, -3.389e-5
-0.876, -3.431e-5
-0.877, -3.467e-5
-0.878, -3.509e-5
-0.879, -3.546e-5
-0.880, -3.584e-5
-0.881, -3.621e-5
-0.882, -3.657e-5
-0.883, -3.696e-5
-0.884, -3.729e-5
-0.885, -3.766e-5
-0.886, -3.800e-5
-0.887, -3.832e-5
-0.888, -3.868e-5
-0.889, -3.899e-5
-0.890, -3.931e-5
-0.891, -3.963e-5
-0.892, -3.992e-5
-0.893, -4.024e-5
-0.894, -4.052e-5
-0.895, -4.080e-5
-0.896, -4.105e-5
-0.897, -4.130e-5
-0.898, -4.160e-5
-0.899, -4.184e-5
-0.900, -4.209e-5
-0.901, -4.235e-5
-0.902, -4.257e-5
-0.903, -4.281e-5
-0.904, -4.303e-5
-0.905, -4.325e-5
-0.906, -4.346e-5
-0.907, -4.365e-5
-0.908, -4.386e-5
-0.909, -4.404e-5
-0.910, -4.422e-5
-0.911, -4.441e-5
-0.912, -4.456e-5
-0.913, -4.473e-5
-0.914, -4.489e-5
-0.915, -4.503e-5
-0.916, -4.518e-5
-0.917, -4.531e-5
-0.918, -4.545e-5
-0.919, -4.556e-5
-0.920, -4.569e-5
-0.921, -4.582e-5
-0.922, -4.593e-5
-0.923, -4.605e-5
-0.924, -4.613e-5
-0.925, -4.621e-5
-0.926, -4.630e-5
-0.927, -4.637e-5
-0.928, -4.645e-5
-0.929, -4.650e-5
-0.930, -4.658e-5
-0.931, -4.664e-5
-0.932, -4.668e-5
-0.933, -4.674e-5
-0.934, -4.678e-5
-0.935, -4.682e-5
-0.936, -4.687e-5
-0.937, -4.688e-5
-0.938, -4.692e-5
-0.939, -4.693e-5
-0.940, -4.695e-5
-0.941, -4.696e-5
-0.942, -4.697e-5
-0.943, -4.699e-5
-0.944, -4.698e-5
-0.945, -4.697e-5
-0.946, -4.698e-5
-0.947, -4.694e-5
-0.948, -4.693e-5
-0.949, -4.692e-5
-0.950, -4.690e-5
-0.951, -4.688e-5
-0.952, -4.686e-5
-0.953, -4.683e-5
-0.954, -4.679e-5
-0.955, -4.676e-5
-0.956, -4.672e-5
-0.957, -4.667e-5
-0.958, -4.664e-5
-0.959, -4.659e-5
-0.960, -4.654e-5
-0.961, -4.649e-5
-0.962, -4.644e-5
-0.963, -4.639e-5
-0.964, -4.634e-5
-0.965, -4.628e-5
-0.966, -4.621e-5
-0.967, -4.615e-5
-0.968, -4.609e-5
-0.969, -4.602e-5
-0.970, -4.595e-5
-0.971, -4.589e-5
-0.972, -4.581e-5
-0.973, -4.576e-5
-0.974, -4.568e-5
-0.975, -4.560e-5
-0.976, -4.553e-5
-0.977, -4.544e-5
-0.978, -4.537e-5
-0.979, -4.528e-5
-0.980, -4.519e-5
-0.981, -4.512e-5
-0.982, -4.503e-5
-0.983, -4.495e-5
-0.984, -4.487e-5
-0.985, -4.478e-5
-0.986, -4.470e-5
-0.987, -4.461e-5
-0.988, -4.452e-5
-0.989, -4.444e-5
-0.990, -4.435e-5
-0.991, -4.426e-5
-0.992, -4.417e-5
-0.993, -4.407e-5
-0.994, -4.399e-5
-0.995, -4.390e-5
-0.996, -4.380e-5
-0.997, -4.371e-5
-0.998, -4.361e-5
-0.999, -4.352e-5
-1.000, -4.343e-5
-1.001, -4.334e-5
-1.002, -4.324e-5
-1.003, -4.315e-5
-1.004, -4.307e-5
-1.005, -4.297e-5
-1.006, -4.288e-5
-1.007, -4.279e-5
-1.008, -4.269e-5
-1.009, -4.260e-5
-1.010, -4.251e-5
-1.011, -4.242e-5
-1.012, -4.233e-5
-1.013, -4.224e-5
-1.014, -4.215e-5
-1.015, -4.205e-5
-1.016, -4.197e-5
-1.017, -4.187e-5
-1.018, -4.178e-5
-1.019, -4.170e-5
-1.020, -4.160e-5
-1.021, -4.152e-5
-1.022, -4.143e-5
-1.023, -4.133e-5
-1.024, -4.126e-5
-1.025, -4.116e-5
-1.026, -4.108e-5
-1.027, -4.099e-5
-1.028, -4.090e-5
-1.029, -4.082e-5
-1.030, -4.073e-5
-1.031, -4.065e-5
-1.032, -4.057e-5
-1.033, -4.048e-5
-1.034, -4.040e-5
-1.035, -4.031e-5
-1.036, -4.023e-5
-1.037, -4.015e-5
-1.038, -4.007e-5
-1.039, -3.999e-5
-1.040, -3.990e-5
-1.041, -3.983e-5
-1.042, -3.975e-5
-1.043, -3.966e-5
-1.044, -3.959e-5
-1.045, -3.951e-5
-1.046, -3.943e-5
-1.047, -3.935e-5
-1.048, -3.928e-5
-1.049, -3.920e-5
-1.050, -3.912e-5
-1.051, -3.905e-5
-1.052, -3.897e-5
-1.053, -3.889e-5
-1.054, -3.883e-5
-1.055, -3.874e-5
-1.056, -3.867e-5
-1.057, -3.860e-5
-1.058, -3.853e-5
-1.059, -3.846e-5
-1.060, -3.838e-5
-1.061, -3.832e-5
-1.062, -3.825e-5
-1.063, -3.818e-5
-1.064, -3.812e-5
-1.065, -3.804e-5
-1.066, -3.797e-5
-1.067, -3.791e-5
-1.068, -3.783e-5
-1.069, -3.778e-5
-1.070, -3.770e-5
-1.071, -3.764e-5
-1.072, -3.758e-5
-1.073, -3.750e-5
-1.074, -3.745e-5
-1.075, -3.738e-5
-1.076, -3.732e-5
-1.077, -3.726e-5
-1.078, -3.719e-5
-1.079, -3.714e-5
-1.080, -3.707e-5
-1.081, -3.701e-5
-1.082, -3.695e-5
-1.083, -3.688e-5
-1.084, -3.684e-5
-1.085, -3.677e-5
-1.086, -3.671e-5
-1.087, -3.666e-5
-1.088, -3.659e-5
-1.089, -3.654e-5
-1.090, -3.647e-5
-1.091, -3.642e-5
-1.092, -3.637e-5
-1.093, -3.631e-5
-1.094, -3.626e-5
-1.095, -3.619e-5
-1.096, -3.615e-5
-1.097, -3.609e-5
-1.098, -3.603e-5
-1.099, -3.599e-5
-1.100, -3.592e-5
-1.101, -3.587e-5
-1.102, -3.582e-5
-1.103, -3.576e-5
-1.104, -3.572e-5
-1.105, -3.566e-5
-1.106, -3.562e-5
-1.107, -3.557e-5
-1.108, -3.551e-5
-1.109, -3.547e-5
-1.110, -3.541e-5
-1.111, -3.537e-5
-1.112, -3.532e-5
-1.113, -3.526e-5
-1.114, -3.523e-5
-1.115, -3.517e-5
-1.116, -3.513e-5
-1.117, -3.508e-5
-1.118, -3.502e-5
-1.119, -3.499e-5
-1.120, -3.493e-5
-1.121, -3.489e-5
-1.122, -3.485e-5
-1.123, -3.479e-5
-1.124, -3.476e-5
-1.125, -3.471e-5
-1.126, -3.467e-5
-1.127, -3.463e-5
-1.128, -3.458e-5
-1.129, -3.454e-5
-1.130, -3.449e-5
-1.131, -3.445e-5
-1.132, -3.441e-5
-1.133, -3.436e-5
-1.134, -3.433e-5
-1.135, -3.428e-5
-1.136, -3.424e-5
-1.137, -3.421e-5
-1.138, -3.416e-5
-1.139, -3.413e-5
-1.140, -3.407e-5
-1.141, -3.404e-5
-1.142, -3.400e-5
-1.143, -3.396e-5
-1.144, -3.393e-5
-1.145, -3.388e-5
-1.146, -3.384e-5
-1.147, -3.381e-5
-1.148, -3.376e-5
-1.149, -3.374e-5
-1.150, -3.369e-5
-1.151, -3.366e-5
-1.152, -3.362e-5
-1.153, -3.357e-5
-1.154, -3.355e-5
-1.155, -3.350e-5
-1.156, -3.347e-5
-1.157, -3.344e-5
-1.158, -3.339e-5
-1.159, -3.337e-5
-1.160, -3.332e-5
-1.161, -3.329e-5
-1.162, -3.326e-5
-1.163, -3.322e-5
-1.164, -3.320e-5
-1.165, -3.315e-5
-1.166, -3.312e-5
-1.167, -3.309e-5
-1.168, -3.305e-5
-1.169, -3.303e-5
-1.170, -3.299e-5
-1.171, -3.297e-5
-1.172, -3.294e-5
-1.173, -3.289e-5
-1.174, -3.287e-5
-1.175, -3.283e-5
-1.176, -3.281e-5
-1.177, -3.278e-5
-1.178, -3.274e-5
-1.179, -3.272e-5
-1.180, -3.268e-5
-1.181, -3.265e-5
-1.182, -3.262e-5
-1.183, -3.258e-5
-1.184, -3.257e-5
-1.185, -3.253e-5
-1.186, -3.250e-5
-1.187, -3.248e-5
-1.188, -3.244e-5
-1.189, -3.242e-5
-1.190, -3.239e-5
-1.191, -3.236e-5
-1.192, -3.234e-5
-1.193, -3.230e-5
-1.194, -3.228e-5
-1.195, -3.225e-5
-1.196, -3.223e-5
-1.197, -3.220e-5
-1.198, -3.216e-5
-1.199, -3.215e-5
-1.200, -3.205e-5
-1.199, -3.196e-5
-1.198, -3.189e-5
-1.197, -3.182e-5
-1.196, -3.178e-5
-1.195, -3.171e-5
-1.194, -3.166e-5
-1.193, -3.160e-5
-1.192, -3.154e-5
-1.191, -3.150e-5
-1.190, -3.144e-5
-1.189, -3.139e-5
-1.188, -3.135e-5
-1.187, -3.129e-5
-1.186, -3.126e-5
-1.185, -3.120e-5
-1.184, -3.116e-5
-1.183, -3.111e-5
-1.182, -3.106e-5
-1.181, -3.102e-5
-1.180, -3.097e-5
-1.179, -3.093e-5
-1.178, -3.089e-5
-1.177, -3.083e-5
-1.176, -3.080e-5
-1.175, -3.075e-5
-1.174, -3.071e-5
-1.173, -3.067e-5
-1.172, -3.062e-5
-1.171, -3.059e-5
-1.170, -3.055e-5
-1.169, -3.051e-5
-1.168, -3.047e-5
-1.167, -3.042e-5
-1.166, -3.040e-5
-1.165, -3.035e-5
-1.164, -3.031e-5
-1.163, -3.028e-5
-1.162, -3.022e-5
-1.161, -3.020e-5
-1.160, -3.015e-5
-1.159, -3.012e-5
-1.158, -3.008e-5
-1.157, -3.003e-5
-1.156, -3.001e-5
-1.155, -2.996e-5
-1.154, -2.993e-5
-1.153, -2.989e-5
-1.152, -2.985e-5
-1.151, -2.983e-5
-1.150, -2.978e-5
-1.149, -2.975e-5
-1.148, -2.971e-5
-1.147, -2.967e-5
-1.146, -2.964e-5
-1.145, -2.960e-5
-1.144, -2.957e-5
-1.143, -2.954e-5
-1.142, -2.949e-5
-1.141, -2.946e-5
-1.140, -2.942e-5
-1.139, -2.939e-5
-1.138, -2.936e-5
-1.137, -2.932e-5
-1.136, -2.930e-5
-1.135, -2.925e-5
-1.134, -2.922e-5
-1.133, -2.919e-5
-1.132, -2.915e-5
-1.131, -2.913e-5
-1.130, -2.909e-5
-1.129, -2.906e-5
-1.128, -2.903e-5
-1.127, -2.898e-5
-1.126, -2.896e-5
-1.125, -2.892e-5
-1.124, -2.889e-5
-1.123, -2.886e-5
-1.122, -2.882e-5
-1.121, -2.880e-5
-1.120, -2.876e-5
-1.119, -2.873e-5
-1.118, -2.870e-5
-1.117, -2.866e-5
-1.116, -2.864e-5
-1.115, -2.860e-5
-1.114, -2.857e-5
-1.113, -2.854e-5
-1.112, -2.850e-5
-1.111, -2.848e-5
-1.110, -2.844e-5
-1.109, -2.841e-5
-1.108, -2.838e-5
-1.107, -2.835e-5
-1.106, -2.832e-5
-1.105, -2.828e-5
-1.104, -2.825e-5
-1.103, -2.823e-5
-1.102, -2.818e-5
-1.101, -2.817e-5
-1.100, -2.813e-5
-1.099, -2.810e-5
-1.098, -2.807e-5
-1.097, -2.803e-5
-1.096, -2.801e-5
-1.095, -2.797e-5
-1.094, -2.794e-5
-1.093, -2.792e-5
-1.092, -2.788e-5
-1.091, -2.786e-5
-1.090, -2.782e-5
-1.089, -2.779e-5
-1.088, -2.776e-5
-1.087, -2.772e-5
-1.086, -2.770e-5
-1.085, -2.766e-5
-1.084, -2.763e-5
-1.083, -2.761e-5
-1.082, -2.757e-5
-1.081, -2.755e-5
-1.080, -2.750e-5
-1.079, -2.748e-5
-1.078, -2.745e-5
-1.077, -2.741e-5
-1.076, -2.739e-5
-1.075, -2.735e-5
-1.074, -2.732e-5
-1.073, -2.729e-5
-1.072, -2.725e-5
-1.071, -2.723e-5
-1.070, -2.719e-5
-1.069, -2.716e-5
-1.068, -2.713e-5
-1.067, -2.709e-5
-1.066, -2.707e-5
-1.065, -2.703e-5
-1.064, -2.700e-5
-1.063, -2.697e-5
-1.062, -2.693e-5
-1.061, -2.691e-5
-1.060, -2.687e-5
-1.059, -2.684e-5
-1.058, -2.681e-5
-1.057, -2.676e-5
-1.056, -2.674e-5
-1.055, -2.670e-5
-1.054, -2.667e-5
-1.053, -2.665e-5
-1.052, -2.660e-5
-1.051, -2.658e-5
-1.050, -2.654e-5
-1.049, -2.651e-5
-1.048, -2.648e-5
-1.047, -2.643e-5
-1.046, -2.641e-5
-1.045, -2.637e-5
-1.044, -2.633e-5
-1.043, -2.630e-5
-1.042, -2.626e-5
-1.041, -2.623e-5
-1.040, -2.619e-5
-1.039, -2.616e-5
-1.038, -2.612e-5
-1.037, -2.608e-5
-1.036, -2.605e-5
-1.035, -2.601e-5
-1.034, -2.597e-5
-1.033, -2.594e-5
-1.032, -2.589e-5
-1.031, -2.587e-5
-1.030, -2.582e-5
-1.029, -2.578e-5
-1.028, -2.574e-5
-1.027, -2.570e-5
-1.026, -2.567e-5
-1.025, -2.562e-5
-1.024, -2.558e-5
-1.023, -2.554e-5
-1.022, -2.549e-5
-1.021, -2.546e-5
-1.020, -2.541e-5
-1.019, -2.537e-5
-1.018, -2.533e-5
-1.017, -2.528e-5
-1.016, -2.524e-5
-1.015, -2.519e-5
-1.014, -2.515e-5
-1.013, -2.511e-5
-1.012, -2.505e-5
-1.011, -2.502e-5
-1.010, -2.496e-5
-1.009, -2.491e-5
-1.008, -2.487e-5
-1.007, -2.481e-5
-1.006, -2.477e-5
-1.005, -2.471e-5
-1.004, -2.466e-5
-1.003, -2.461e-5
-1.002, -2.455e-5
-1.001, -2.450e-5
-1.000, -2.445e-5
-0.999, -2.439e-5
-0.998, -2.434e-5
-0.997, -2.427e-5
-0.996, -2.422e-5
-0.995, -2.415e-5
-0.994, -2.410e-5
-0.993, -2.404e-5
-0.992, -2.397e-5
-0.991, -2.391e-5
-0.990, -2.383e-5
-0.989, -2.377e-5
-0.988, -2.371e-5
-0.987, -2.363e-5
-0.986, -2.357e-5
-0.985, -2.349e-5
-0.984, -2.342e-5
-0.983, -2.334e-5
-0.982, -2.327e-5
-0.981, -2.319e-5
-0.980, -2.311e-5
-0.979, -2.304e-5
-0.978, -2.295e-5
-0.977, -2.286e-5
-0.976, -2.278e-5
-0.975, -2.269e-5
-0.974, -2.260e-5
-0.973, -2.251e-5
-0.972, -2.241e-5
-0.971, -2.232e-5
-0.970, -2.222e-5
-0.969, -2.213e-5
-0.968, -2.202e-5
-0.967, -2.192e-5
-0.966, -2.182e-5
-0.965, -2.170e-5
-0.964, -2.160e-5
-0.963, -2.149e-5
-0.962, -2.137e-5
-0.961, -2.126e-5
-0.960, -2.113e-5
-0.959, -2.102e-5
-0.958, -2.089e-5
-0.957, -2.076e-5
-0.956, -2.064e-5
-0.955, -2.050e-5
-0.954, -2.037e-5
-0.953, -2.023e-5
-0.952, -2.008e-5
-0.951, -1.994e-5
-0.950, -1.978e-5
-0.949, -1.963e-5
-0.948, -1.947e-5
-0.947, -1.934e-5
-0.946, -1.917e-5
-0.945, -1.899e-5
-0.944, -1.883e-5
-0.943, -1.866e-5
-0.942, -1.847e-5
-0.941, -1.829e-5
-0.940, -1.811e-5
-0.939, -1.792e-5
-0.938, -1.772e-5
-0.937, -1.753e-5
-0.936, -1.733e-5
-0.935, -1.712e-5
-0.934, -1.691e-5
-0.933, -1.668e-5
-0.932, -1.647e-5
-0.931, -1.625e-5
-0.930, -1.602e-5
-0.929, -1.579e-5
-0.928, -1.554e-5
-0.927, -1.531e-5
-0.926, -1.505e-5
-0.925, -1.479e-5
-0.924, -1.455e-5
-0.923, -1.426e-5
-0.922, -1.400e-5
-0.921, -1.370e-5
-0.920, -1.342e-5
-0.919, -1.315e-5
-0.918, -1.285e-5
-0.917, -1.256e-5
-0.916, -1.225e-5
-0.915, -1.195e-5
-0.914, -1.164e-5
-0.913, -1.130e-5
-0.912, -1.100e-5
-0.911, -1.066e-5
-0.910, -1.031e-5
-0.909, -9.974e-6
-0.908, -9.609e-6
-0.907, -9.263e-6
-0.906, -8.904e-6
-0.905, -8.535e-6
-0.904, -8.172e-6
-0.903, -7.793e-6
-0.902, -7.417e-6
-0.901, -7.013e-6
-0.900, -6.612e-6
-0.899, -6.232e-6
-0.898, -5.810e-6
-0.897, -5.409e-6
-0.896, -5.018e-6
-0.895, -4.603e-6
-0.894, -4.172e-6
-0.893, -3.733e-6
-0.892, -3.319e-6
-0.891, -2.852e-6
-0.890, -2.412e-6
-0.889, -1.979e-6
-0.888, -1.497e-6
-0.887, -1.063e-6
-0.886, -5.755e-7
-0.885, -1.127e-7
-0.884, 3.417e-7
-0.883, 8.402e-7
-0.882, 1.318e-6
-0.881, 1.812e-6
-0.880, 2.282e-6
-0.879, 2.740e-6
-0.878, 3.263e-6
-0.877, 3.724e-6
-0.876, 4.234e-6
-0.875, 4.739e-6
-0.874, 5.206e-6
-0.873, 5.721e-6
-0.872, 6.211e-6
-0.871, 6.712e-6
-0.870, 7.257e-6
-0.869, 7.724e-6
-0.868, 8.238e-6
-0.867, 8.700e-6
-0.866, 9.201e-6
-0.865, 9.688e-6
-0.864, 1.015e-5
-0.863, 1.065e-5
-0.862, 1.112e-5
-0.861, 1.161e-5
-0.860, 1.206e-5
-0.859, 1.253e-5
-0.858, 1.302e-5
-0.857, 1.345e-5
-0.856, 1.393e-5
-0.855, 1.438e-5
-0.854, 1.481e-5
-0.853, 1.525e-5
-0.852, 1.566e-5
-0.851, 1.608e-5
-0.850, 1.648e-5
-0.849, 1.689e-5
-0.848, 1.731e-5
-0.847, 1.767e-5
-0.846, 1.807e-5
-0.845, 1.840e-5
-0.844, 1.872e-5
-0.843, 1.912e-5
-0.842, 1.943e-5
-0.841, 1.978e-5
-0.840, 2.012e-5
-0.839, 2.041e-5
-0.838, 2.073e-5
-0.837, 2.100e-5
-0.836, 2.130e-5
-0.835, 2.155e-5
-0.834, 2.179e-5
-0.833, 2.206e-5
-0.832, 2.227e-5
-0.831, 2.251e-5
-0.830, 2.273e-5
-0.829, 2.290e-5
-0.828, 2.311e-5
-0.827, 2.326e-5
-0.826, 2.343e-5
-0.825, 2.357e-5
-0.824, 2.370e-5
-0.823, 2.384e-5
-0.822, 2.392e-5
-0.821, 2.405e-5
-0.820, 2.414e-5
-0.819, 2.410e-5
-0.818, 2.420e-5
-0.817, 2.426e-5
-0.816, 2.432e-5
-0.815, 2.436e-5
-0.814, 2.438e-5
-0.813, 2.441e-5
-0.812, 2.440e-5
-0.811, 2.441e-5
-0.810, 2.439e-5
-0.809, 2.436e-5
-0.808, 2.435e-5
-0.807, 2.430e-5
-0.806, 2.426e-5
-0.805, 2.420e-5
-0.804, 2.412e-5
-0.803, 2.406e-5
-0.802, 2.396e-5
-0.801, 2.388e-5
-0.800, 2.378e-5
-0.799, 2.367e-5
-0.798, 2.359e-5
-0.797, 2.346e-5
-0.796, 2.335e-5
-0.795, 2.323e-5
-0.794, 2.308e-5
-0.793, 2.294e-5
-0.792, 2.281e-5
-0.791, 2.267e-5
-0.790, 2.253e-5
-0.789, 2.238e-5
-0.788, 2.223e-5
-0.787, 2.208e-5
-0.786, 2.192e-5
-0.785, 2.176e-5
-0.784, 2.160e-5
-0.783, 2.145e-5
-0.782, 2.128e-5
-0.781, 2.112e-5
-0.780, 2.095e-5
-0.779, 2.079e-5
-0.778, 2.062e-5
-0.777, 2.044e-5
-0.776, 2.027e-5
-0.775, 2.011e-5
-0.774, 1.993e-5
-0.773, 1.976e-5
-0.772, 1.959e-5
-0.771, 1.942e-5
-0.770, 1.925e-5
-0.769, 1.907e-5
-0.768, 1.892e-5
-0.767, 1.875e-5
-0.766, 1.857e-5
-0.765, 1.841e-5
-0.764, 1.824e-5
-0.763, 1.807e-5
-0.762, 1.790e-5
-0.761, 1.774e-5
-0.760, 1.758e-5
-0.759, 1.742e-5
-0.758, 1.726e-5
-0.757, 1.710e-5
-0.756, 1.694e-5
-0.755, 1.680e-5
-0.754, 1.664e-5
-0.753, 1.648e-5
-0.752, 1.633e-5
-0.751, 1.617e-5
-0.750, 1.603e-5
-0.749, 1.588e-5
-0.748, 1.573e-5
-0.747, 1.560e-5
-0.746, 1.545e-5
-0.745, 1.531e-5
-0.744, 1.516e-5
-0.743, 1.503e-5
-0.742, 1.489e-5
-0.741, 1.476e-5
-0.740, 1.463e-5
-0.739, 1.450e-5
-0.738, 1.437e-5
-0.737, 1.424e-5
-0.736, 1.411e-5
-0.735, 1.399e-5
-0.734, 1.387e-5
-0.733, 1.374e-5
-0.732, 1.363e-5
-0.731, 1.350e-5
-0.730, 1.339e-5
-0.729, 1.328e-5
-0.728, 1.316e-5
-0.727, 1.305e-5
-0.726, 1.293e-5
-0.725, 1.283e-5
-0.724, 1.272e-5
-0.723, 1.261e-5
-0.722, 1.251e-5
-0.721, 1.240e-5
-0.720, 1.230e-5
-0.719, 1.220e-5
-0.718, 1.209e-5
-0.717, 1.201e-5
-0.716, 1.190e-5
-0.715, 1.181e-5
-0.714, 1.171e-5
-0.713, 1.161e-5
-0.712, 1.153e-5
-0.711, 1.143e-5
-0.710, 1.134e-5
-0.709, 1.125e-5
-0.708, 1.116e-5
-0.707, 1.108e-5
-0.706, 1.099e-5
-0.705, 1.091e-5
-0.704, 1.082e-5
-0.703, 1.073e-5
-0.702, 1.066e-5
-0.701, 1.057e-5
-0.700, 1.050e-5
-0.699, 1.042e-5
-0.698, 1.033e-5
-0.697, 1.026e-5
-0.696, 1.018e-5
-0.695, 1.010e-5
-0.694, 1.003e-5
-0.693, 9.954e-6
-0.692, 9.891e-6
-0.691, 9.811e-6
-0.690, 9.752e-6
-0.689, 9.679e-6
-0.688, 9.600e-6
-0.687, 9.547e-6
-0.686, 9.469e-6
-0.685, 9.406e-6
-0.684, 9.340e-6
-0.683, 9.269e-6
-0.682, 9.214e-6
-0.681, 9.135e-6
-0.680, 9.082e-6
-0.679, 9.020e-6
-0.678, 8.952e-6
-0.677, 8.900e-6
-0.676, 8.829e-6
-0.675, 8.775e-6
-0.674, 8.716e-6
-0.673, 8.648e-6
-0.672, 8.604e-6
-0.671, 8.537e-6
-0.670, 8.487e-6
-0.669, 8.429e-6
-0.668, 8.366e-6
-0.667, 8.325e-6
-0.666, 8.258e-6
-0.665, 8.212e-6
-0.664, 8.153e-6
-0.663, 8.100e-6
-0.662, 8.057e-6
-0.661, 7.996e-6
-0.660, 7.948e-6
-0.659, 7.896e-6
-0.658, 7.841e-6
-0.657, 7.803e-6
-0.656, 7.745e-6
-0.655, 7.698e-6
-0.654, 7.651e-6
-0.653, 7.601e-6
-0.652, 7.566e-6
-0.651, 7.507e-6
-0.650, 7.466e-6
-0.649, 7.418e-6
-0.648, 7.367e-6
-0.647, 7.337e-6
-0.646, 7.280e-6
-0.645, 7.242e-6
-0.644, 7.196e-6
-0.643, 7.146e-6
-0.642, 7.121e-6
-0.641, 7.067e-6
-0.640, 7.031e-6
-0.639, 6.990e-6
-0.638, 6.941e-6
-0.637, 6.911e-6
-0.636, 6.862e-6
-0.635, 6.829e-6
-0.634, 6.792e-6
-0.633, 6.743e-6
-0.632, 6.716e-6
-0.631, 6.664e-6
-0.630, 6.638e-6
-0.629, 6.602e-6
-0.628, 6.558e-6
-0.627, 6.532e-6
-0.626, 6.485e-6
-0.625, 6.453e-6
-0.624, 6.420e-6
-0.623, 6.378e-6
-0.622, 6.357e-6
-0.621, 6.312e-6
-0.620, 6.283e-6
-0.619, 6.248e-6
-0.618, 6.205e-6
-0.617, 6.184e-6
-0.616, 6.146e-6
-0.615, 6.121e-6
-0.614, 6.089e-6
-0.613, 6.050e-6
-0.612, 6.030e-6
-0.611, 5.988e-6
-0.610, 5.964e-6
-0.609, 5.937e-6
-0.608, 5.903e-6
-0.607, 5.888e-6
-0.606, 5.850e-6
-0.605, 5.829e-6
-0.604, 5.801e-6
-0.603, 5.768e-6
-0.602, 5.748e-6
-0.601, 5.710e-6
-0.600, 5.688e-6
-0.599, 5.666e-6
-0.598, 5.633e-6
-0.597, 5.622e-6
-0.596, 5.586e-6
-0.595, 5.568e-6
-0.594, 5.544e-6
-0.593, 5.511e-6
-0.592, 5.497e-6
-0.591, 5.464e-6
-0.590, 5.446e-6
-0.589, 5.427e-6
-0.588, 5.400e-6
-0.587, 5.392e-6
-0.586, 5.361e-6
-0.585, 5.345e-6
-0.584, 5.329e-6
-0.583, 5.301e-6
-0.582, 5.294e-6
-0.581, 5.263e-6
-0.580, 5.249e-6
-0.579, 5.234e-6
-0.578, 5.212e-6
-0.577, 5.208e-6
-0.576, 5.186e-6
-0.575, 5.178e-6
-0.574, 5.166e-6
-0.573, 5.149e-6
-0.572, 5.147e-6
-0.571, 5.126e-6
-0.570, 5.123e-6
-0.569, 5.114e-6
-0.568, 5.100e-6
-0.567, 5.102e-6
-0.566, 5.085e-6
-0.565, 5.086e-6
-0.564, 5.084e-6
-0.563, 5.075e-6
-0.562, 5.084e-6
-0.561, 5.072e-6
-0.560, 5.080e-6
-0.559, 5.083e-6
-0.558, 5.082e-6
-0.557, 5.098e-6
-0.556, 5.096e-6
-0.555, 5.110e-6
-0.554, 5.125e-6
-0.553, 5.133e-6
-0.552, 5.160e-6
-0.551, 5.169e-6
-0.550, 5.195e-6
-0.549, 5.217e-6
-0.548, 5.238e-6
-0.547, 5.280e-6
-0.546, 5.304e-6
-0.545, 5.344e-6
-0.544, 5.384e-6
-0.543, 5.417e-6
-0.542, 5.468e-6
-0.541, 5.508e-6
-0.540, 5.568e-6
-0.539, 5.621e-6
-0.538, 5.667e-6
-0.537, 5.732e-6
-0.536, 5.790e-6
-0.535, 5.859e-6
-0.534, 5.924e-6
-0.533, 5.987e-6
-0.532, 6.069e-6
-0.531, 6.138e-6
-0.530, 6.220e-6
-0.529, 6.305e-6
-0.528, 6.382e-6
-0.527, 6.478e-6
-0.526, 6.560e-6
-0.525, 6.656e-6
-0.524, 6.749e-6
-0.523, 6.846e-6
-0.522, 6.948e-6
-0.521, 7.047e-6
-0.520, 7.153e-6
-0.519, 7.262e-6
-0.518, 7.365e-6
-0.517, 7.488e-6
-0.516, 7.595e-6
-0.515, 7.715e-6
-0.514, 7.836e-6
-0.513, 7.961e-6
-0.512, 8.100e-6
-0.511, 8.221e-6
-0.510, 8.360e-6
-0.509, 8.491e-6
-0.508, 8.625e-6
-0.507, 8.777e-6
-0.506, 8.910e-6
-0.505, 9.061e-6
-0.504, 9.209e-6
-0.503, 9.363e-6
-0.502, 9.521e-6
-0.501, 9.674e-6
-0.500, 9.531e-6
-0.501, 8.948e-6
-0.502, 8.529e-6
-0.503, 8.186e-6
-0.504, 7.870e-6
-0.505, 7.603e-6
-0.506, 7.352e-6
-0.507, 7.118e-6
-0.508, 6.909e-6
-0.509, 6.696e-6
-0.510, 6.511e-6
-0.511, 6.328e-6
-0.512, 6.142e-6
-0.513, 5.988e-6
-0.514, 5.828e-6
-0.515, 5.679e-6
-0.516, 5.537e-6
-0.517, 5.391e-6
-0.518, 5.265e-6
-0.519, 5.129e-6
-0.520, 5.007e-6
-0.521, 4.886e-6
-0.522, 4.764e-6
-0.523, 4.660e-6
-0.524, 4.545e-6
-0.525, 4.443e-6
-0.526, 4.341e-6
-0.527, 4.235e-6
-0.528, 4.154e-6
-0.529, 4.051e-6
-0.530, 3.966e-6
-0.531, 3.880e-6
-0.532, 3.791e-6
-0.533, 3.718e-6
-0.534, 3.636e-6
-0.535, 3.564e-6
-0.536, 3.487e-6
-0.537, 3.417e-6
-0.538, 3.359e-6
-0.539, 3.278e-6
-0.540, 3.223e-6
-0.541, 3.163e-6
-0.542, 3.096e-6
-0.543, 3.045e-6
-0.544, 2.981e-6
-0.545, 2.933e-6
-0.546, 2.881e-6
-0.547, 2.823e-6
-0.548, 2.785e-6
-0.549, 2.734e-6
-0.550, 2.696e-6
-0.551, 2.655e-6
-0.552, 2.606e-6
-0.553, 2.579e-6
-0.554, 2.533e-6
-0.555, 2.505e-6
-0.556, 2.475e-6
-0.557, 2.438e-6
-0.558, 2.417e-6
-0.559, 2.380e-6
-0.560, 2.356e-6
-0.561, 2.330e-6
-0.562, 2.295e-6
-0.563, 2.284e-6
-0.564, 2.255e-6
-0.565, 2.241e-6
-0.566, 2.221e-6
-0.567, 2.196e-6
-0.568, 2.186e-6
-0.569, 2.161e-6
-0.570, 2.149e-6
-0.571, 2.134e-6
-0.572, 2.109e-6
-0.573, 2.108e-6
-0.574, 2.081e-6
-0.575, 2.075e-6
-0.576, 2.062e-6
-0.577, 2.042e-6
-0.578, 2.042e-6
-0.579, 2.021e-6
-0.580, 2.015e-6
-0.581, 2.005e-6
-0.582, 1.987e-6
-0.583, 1.989e-6
-0.584, 1.967e-6
-0.585, 1.962e-6
-0.586, 1.955e-6
-0.587, 1.935e-6
-0.588, 1.937e-6
-0.589, 1.918e-6
-0.590, 1.913e-6
-0.591, 1.906e-6
-0.592, 1.886e-6
-0.593, 1.889e-6
-0.594, 1.868e-6
-0.595, 1.865e-6
-0.596, 1.858e-6
-0.597, 1.838e-6
-0.598, 1.843e-6
-0.599, 1.823e-6
-0.600, 1.820e-6
-0.601, 1.813e-6
-0.602, 1.796e-6
-0.603, 1.799e-6
-0.604, 1.783e-6
-0.605, 1.778e-6
-0.606, 1.772e-6
-0.607, 1.756e-6
-0.608, 1.761e-6
-0.609, 1.742e-6
-0.610, 1.740e-6
-0.611, 1.732e-6
-0.612, 1.717e-6
-0.613, 1.721e-6
-0.614, 1.703e-6
-0.615, 1.699e-6
-0.616, 1.694e-6
-0.617, 1.677e-6
-0.618, 1.682e-6
-0.619, 1.663e-6
-0.620, 1.660e-6
-0.621, 1.656e-6
-0.622, 1.637e-6
-0.623, 1.643e-6
-0.624, 1.622e-6
-0.625, 1.619e-6
-0.626, 1.612e-6
-0.627, 1.594e-6
-0.628, 1.600e-6
-0.629, 1.579e-6
-0.630, 1.577e-6
-0.631, 1.571e-6
-0.632, 1.554e-6
-0.633, 1.558e-6
-0.634, 1.541e-6
-0.635, 1.537e-6
-0.636, 1.531e-6
-0.637, 1.517e-6
-0.638, 1.521e-6
-0.639, 1.503e-6
-0.640, 1.502e-6
-0.641, 1.495e-6
-0.642, 1.480e-6
-0.643, 1.483e-6
-0.644, 1.464e-6
-0.645, 1.461e-6
-0.646, 1.454e-6
-0.647, 1.438e-6
-0.648, 1.441e-6
-0.649, 1.423e-6
-0.650, 1.418e-6
-0.651, 1.412e-6
-0.652, 1.394e-6
-0.653, 1.399e-6
-0.654, 1.377e-6
-0.655, 1.375e-6
-0.656, 1.368e-6
-0.657, 1.349e-6
-0.658, 1.353e-6
-0.659, 1.334e-6
-0.660, 1.329e-6
-0.661, 1.325e-6
-0.662, 1.307e-6
-0.663, 1.310e-6
-0.664, 1.292e-6
-0.665, 1.286e-6
-0.666, 1.279e-6
-0.667, 1.261e-6
-0.668, 1.265e-6
-0.669, 1.245e-6
-0.670, 1.241e-6
-0.671, 1.233e-6
-0.672, 1.216e-6
-0.673, 1.218e-6
-0.674, 1.196e-6
-0.675, 1.191e-6
-0.676, 1.183e-6
-0.677, 1.164e-6
-0.678, 1.168e-6
-0.679, 1.146e-6
-0.680, 1.140e-6
-0.681, 1.129e-6
-0.682, 1.111e-6
-0.683, 1.109e-6
-0.684, 1.087e-6
-0.685, 1.079e-6
-0.686, 1.072e-6
-0.687, 1.050e-6
-0.688, 1.050e-6
-0.689, 1.027e-6
-0.690, 1.021e-6
-0.691, 1.012e-6
-0.692, 9.925e-7
-0.693, 9.895e-7
-0.694, 9.686e-7
-0.695, 9.596e-7
-0.696, 9.494e-7
-0.697, 9.264e-7
-0.698, 9.249e-7
-0.699, 8.987e-7
-0.700, 8.891e-7
-0.701, 8.753e-7
-0.702, 8.496e-7
-0.703, 8.461e-7
-0.704, 8.212e-7
-0.705, 8.111e-7
-0.706, 7.978e-7
-0.707, 7.740e-7
-0.708, 7.690e-7
-0.709, 7.427e-7
-0.710, 7.314e-7
-0.711, 7.160e-7
-0.712, 6.879e-7
-0.713, 6.833e-7
-0.714, 6.532e-7
-0.715, 6.387e-7
-0.716, 6.178e-7
-0.717, 5.880e-7
-0.718, 5.771e-7
-0.719, 5.474e-7
-0.720, 5.291e-7
-0.721, 5.109e-7
-0.722, 4.824e-7
-0.723, 4.736e-7
-0.724, 4.409e-7
-0.725, 4.211e-7
-0.726, 3.973e-7
-0.727, 3.647e-7
-0.728, 3.488e-7
-0.729, 3.173e-7
-0.730, 2.961e-7
-0.731, 2.722e-7
-0.732, 2.374e-7
-0.733, 2.205e-7
-0.734, 1.802e-7
-0.735, 1.515e-7
-0.736, 1.203e-7
-0.737, 7.854e-8
-0.738, 5.560e-8
-0.739, 1.534e-8
-0.740, -1.439e-8
-0.741, -4.932e-8
-0.742, -9.257e-8
-0.743, -1.198e-7
-0.744, -1.670e-7
-0.745, -1.990e-7
-0.746, -2.388e-7
-0.747, -2.871e-7
-0.748, -3.210e-7
-0.749, -3.790e-7
-0.750, -4.211e-7
-0.751, -4.660e-7
-0.752, -5.149e-7
-0.753, -5.577e-7
-0.754, -6.213e-7
-0.755, -6.657e-7
-0.756, -7.175e-7
-0.757, -7.803e-7
-0.758, -8.294e-7
-0.759, -8.988e-7
-0.760, -9.549e-7
-0.761, -1.016e-6
-0.762, -1.087e-6
-0.763, -1.146e-6
-0.764, -1.219e-6
-0.765, -1.287e-6
-0.766, -1.361e-6
-0.767, -1.440e-6
-0.768, -1.519e-6
-0.769, -1.605e-6
-0.770, -1.679e-6
-0.771, -1.764e-6
-0.772, -1.851e-6
-0.773, -1.935e-6
-0.774, -2.033e-6
-0.775, -2.123e-6
-0.776, -2.224e-6
-0.777, -2.329e-6
-0.778, -2.421e-6
-0.779, -2.540e-6
-0.780, -2.641e-6
-0.781, -2.759e-6
-0.782, -2.876e-6
-0.783, -2.991e-6
-0.784, -3.120e-6
-0.785, -3.240e-6
-0.786, -3.374e-6
-0.787, -3.508e-6
-0.788, -3.639e-6
-0.789, -3.790e-6
-0.790, -3.932e-6
-0.791, -4.087e-6
-0.792, -4.242e-6
-0.793, -4.388e-6
-0.794, -4.544e-6
-0.795, -4.710e-6
-0.796, -4.883e-6
-0.797, -5.054e-6
-0.798, -5.234e-6
-0.799, -5.425e-6
-0.800, -5.604e-6
-0.801, -5.801e-6
-0.802, -6.000e-6
-0.803, -6.198e-6
-0.804, -6.410e-6
-0.805, -6.617e-6
-0.806, -6.844e-6
-0.807, -7.065e-6
-0.808, -7.301e-6
-0.809, -7.528e-6
-0.810, -7.757e-6
-0.811, -8.016e-6
-0.812, -8.253e-6
-0.813, -8.511e-6
-0.814, -8.772e-6
-0.815, -9.028e-6
-0.816, -9.305e-6
-0.817, -9.570e-6
-0.818, -9.855e-6
-0.819, -1.010e-5
-0.820, -1.036e-5
-0.821, -1.069e-5
-0.822, -1.098e-5
-0.823, -1.129e-5
-0.824, -1.161e-5
-0.825, -1.192e-5
-0.826, -1.225e-5
-0.827, -1.257e-5
-0.828, -1.291e-5
-0.829, -1.325e-5
-0.830, -1.359e-5
-0.831, -1.395e-5
-0.832, -1.429e-5
-0.833, -1.465e-5
-0.834, -1.501e-5
-0.835, -1.537e-5
-0.836, -1.575e-5
-0.837, -1.612e-5
-0.838, -1.649e-5
-0.839, -1.687e-5
-0.840, -1.726e-5
-0.841, -1.764e-5
-0.842, -1.802e-5
-0.843, -1.842e-5
-0.844, -1.882e-5
-0.845, -1.917e-5
-0.846, -1.959e-5
-0.847, -1.999e-5
-0.848, -2.040e-5
-0.849, -2.080e-5
-0.850, -2.121e-5
-0.851, -2.162e-5
-0.852, -2.202e-5
-0.853, -2.246e-5
-0.854, -2.286e-5
-0.855, -2.326e-5
-0.856, -2.370e-5
-0.857, -2.410e-5
-0.858, -2.452e-5
-0.859, -2.494e-5
-0.860, -2.534e-5
-0.861, -2.576e-5
-0.862, -2.616e-5
-0.863, -2.658e-5
-0.864, -2.699e-5
-0.865, -2.738e-5
-0.866, -2.781e-5
-0.867, -2.819e-5
-0.868, -2.860e-5
-0.869, -2.900e-5
-0.870, -2.940e-5
-0.871, -2.983e-5
-0.872, -3.020e-5
-0.873, -3.059e-5
-0.874, -3.097e-5
-0.875, -3.134e-5
-0.876, -3.173e-5
-0.877, -3.206e-5
-0.878, -3.244e-5
-0.879, -3.280e-5
-0.880, -3.313e-5
-0.881, -3.349e-5
-0.882, -3.382e-5
-0.883, -3.418e-5
-0.884, -3.451e-5
-0.885, -3.484e-5
-0.886, -3.518e-5
-0.887, -3.547e-5
-0.888, -3.580e-5
-0.889, -3.610e-5
-0.890, -3.638e-5
-0.891, -3.669e-5
-0.892, -3.695e-5
-0.893, -3.725e-5
-0.894, -3.752e-5
-0.895, -3.778e-5
-0.896, -3.803e-5
-0.897, -3.827e-5
-0.898, -3.854e-5
-0.899, -3.878e-5
-0.900, -3.900e-5
-0.901, -3.927e-5
-0.902, -3.946e-5
-0.903, -3.969e-5
-0.904, -3.991e-5
-0.905, -4.010e-5
-0.906, -4.032e-5
-0.907, -4.050e-5
-0.908, -4.070e-5
-0.909, -4.088e-5
-0.910, -4.104e-5
-0.911, -4.123e-5
-0.912, -4.138e-5
-0.913, -4.154e-5
-0.914, -4.170e-5
-0.915, -4.183e-5
-0.916, -4.199e-5
-0.917, -4.212e-5
-0.918, -4.225e-5
-0.919, -4.237e-5
-0.920, -4.249e-5
-0.921, -4.262e-5
-0.922, -4.274e-5
-0.923, -4.285e-5
-0.924, -4.295e-5
-0.925, -4.303e-5
-0.926, -4.313e-5
-0.927, -4.320e-5
-0.928, -4.327e-5
-0.929, -4.335e-5
-0.930, -4.342e-5
-0.931, -4.348e-5
-0.932, -4.353e-5
-0.933, -4.360e-5
-0.934, -4.366e-5
-0.935, -4.370e-5
-0.936, -4.375e-5
-0.937, -4.378e-5
-0.938, -4.381e-5
-0.939, -4.385e-5
-0.940, -4.386e-5
-0.941, -4.389e-5
-0.942, -4.390e-5
-0.943, -4.392e-5
-0.944, -4.393e-5
-0.945, -4.393e-5
-0.946, -4.395e-5
-0.947, -4.394e-5
-0.948, -4.393e-5
-0.949, -4.394e-5
-0.950, -4.392e-5
-0.951, -4.392e-5
-0.952, -4.391e-5
-0.953, -4.389e-5
-0.954, -4.387e-5
-0.955, -4.384e-5
-0.956, -4.383e-5
-0.957, -4.379e-5
-0.958, -4.376e-5
-0.959, -4.373e-5
-0.960, -4.370e-5
-0.961, -4.367e-5
-0.962, -4.363e-5
-0.963, -4.358e-5
-0.964, -4.354e-5
-0.965, -4.350e-5
-0.966, -4.346e-5
-0.967, -4.341e-5
-0.968, -4.336e-5
-0.969, -4.331e-5
-0.970, -4.325e-5
-0.971, -4.319e-5
-0.972, -4.314e-5
-0.973, -4.309e-5
-0.974, -4.304e-5
-0.975, -4.297e-5
-0.976, -4.291e-5
-0.977, -4.284e-5
-0.978, -4.277e-5
-0.979, -4.271e-5
-0.980, -4.263e-5
-0.981, -4.257e-5
-0.982, -4.250e-5
-0.983, -4.243e-5
-0.984, -4.236e-5
-0.985, -4.228e-5
-0.986, -4.222e-5
-0.987, -4.215e-5
-0.988, -4.207e-5
-0.989, -4.200e-5
-0.990, -4.192e-5
-0.991, -4.184e-5
-0.992, -4.177e-5
-0.993, -4.169e-5
-0.994, -4.162e-5
-0.995, -4.154e-5
-0.996, -4.146e-5
-0.997, -4.138e-5
-0.998, -4.129e-5
-0.999, -4.122e-5
-1.000, -4.113e-5
-1.001, -4.105e-5
-1.002, -4.098e-5
-1.003, -4.089e-5
-1.004, -4.082e-5
-1.005, -4.074e-5
-1.006, -4.066e-5
-1.007, -4.058e-5
-1.008, -4.050e-5
-1.009, -4.042e-5
-1.010, -4.034e-5
-1.011, -4.026e-5
-1.012, -4.019e-5
-1.013, -4.010e-5
-1.014, -4.003e-5
-1.015, -3.995e-5
-1.016, -3.987e-5
-1.017, -3.979e-5
-1.018, -3.970e-5
-1.019, -3.963e-5
-1.020, -3.955e-5
-1.021, -3.947e-5
-1.022, -3.940e-5
-1.023, -3.931e-5
-1.024, -3.925e-5
-1.025, -3.917e-5
-1.026, -3.909e-5
-1.027, -3.901e-5
-1.028, -3.893e-5
-1.029, -3.886e-5
-1.030, -3.878e-5
-1.031, -3.870e-5
-1.032, -3.863e-5
-1.033, -3.855e-5
-1.034, -3.848e-5
-1.035, -3.840e-5
-1.036, -3.833e-5
-1.037, -3.826e-5
-1.038, -3.818e-5
-1.039, -3.812e-5
-1.040, -3.804e-5
-1.041, -3.797e-5
-1.042, -3.790e-5
-1.043, -3.782e-5
-1.044, -3.776e-5
-1.045, -3.768e-5
-1.046, -3.761e-5
-1.047, -3.755e-5
-1.048, -3.747e-5
-1.049, -3.740e-5
-1.050, -3.733e-5
-1.051, -3.726e-5
-1.052, -3.720e-5
-1.053, -3.713e-5
-1.054, -3.707e-5
-1.055, -3.700e-5
-1.056, -3.693e-5
-1.057, -3.688e-5
-1.058, -3.680e-5
-1.059, -3.675e-5
-1.060, -3.668e-5
-1.061, -3.662e-5
-1.062, -3.656e-5
-1.063, -3.649e-5
-1.064, -3.643e-5
-1.065, -3.637e-5
-1.066, -3.630e-5
-1.067, -3.625e-5
-1.068, -3.618e-5
-1.069, -3.613e-5
-1.070, -3.606e-5
-1.071, -3.600e-5
-1.072, -3.595e-5
-1.073, -3.588e-5
-1.074, -3.582e-5
-1.075, -3.577e-5
-1.076, -3.571e-5
-1.077, -3.566e-5
-1.078, -3.559e-5
-1.079, -3.554e-5
-1.080, -3.548e-5
-1.081, -3.542e-5
-1.082, -3.538e-5
-1.083, -3.531e-5
-1.084, -3.527e-5
-1.085, -3.521e-5
-1.086, -3.516e-5
-1.087, -3.511e-5
-1.088, -3.505e-5
-1.089, -3.501e-5
-1.090, -3.495e-5
-1.091, -3.490e-5
-1.092, -3.485e-5
-1.093, -3.479e-5
-1.094, -3.474e-5
-1.095, -3.469e-5
-1.096, -3.464e-5
-1.097, -3.460e-5
-1.098, -3.453e-5
-1.099, -3.449e-5
-1.100, -3.444e-5
-1.101, -3.439e-5
-1.102, -3.435e-5
-1.103, -3.430e-5
-1.104, -3.426e-5
-1.105, -3.421e-5
-1.106, -3.416e-5
-1.107, -3.412e-5
-1.108, -3.407e-5
-1.109, -3.403e-5
-1.110, -3.398e-5
-1.111, -3.393e-5
-1.112, -3.389e-5
-1.113, -3.384e-5
-1.114, -3.380e-5
-1.115, -3.375e-5
-1.116, -3.371e-5
-1.117, -3.368e-5
-1.118, -3.362e-5
-1.119, -3.358e-5
-1.120, -3.354e-5
-1.121, -3.350e-5
-1.122, -3.347e-5
-1.123, -3.341e-5
-1.124, -3.338e-5
-1.125, -3.334e-5
-1.126, -3.329e-5
-1.127, -3.326e-5
-1.128, -3.322e-5
-1.129, -3.318e-5
-1.130, -3.314e-5
-1.131, -3.310e-5
-1.132, -3.307e-5
-1.133, -3.302e-5
-1.134, -3.300e-5
-1.135, -3.295e-5
-1.136, -3.291e-5
-1.137, -3.288e-5
-1.138, -3.283e-5
-1.139, -3.280e-5
-1.140, -3.276e-5
-1.141, -3.273e-5
-1.142, -3.270e-5
-1.143, -3.265e-5
-1.144, -3.262e-5
-1.145, -3.258e-5
-1.146, -3.254e-5
-1.147, -3.252e-5
-1.148, -3.248e-5
-1.149, -3.245e-5
-1.150, -3.241e-5
-1.151, -3.238e-5
-1.152, -3.235e-5
-1.153, -3.231e-5
-1.154, -3.228e-5
-1.155, -3.225e-5
-1.156, -3.221e-5
-1.157, -3.219e-5
-1.158, -3.214e-5
-1.159, -3.212e-5
-1.160, -3.208e-5
-1.161, -3.205e-5
-1.162, -3.203e-5
-1.163, -3.199e-5
-1.164, -3.196e-5
-1.165, -3.193e-5
-1.166, -3.189e-5
-1.167, -3.187e-5
-1.168, -3.183e-5
-1.169, -3.181e-5
-1.170, -3.178e-5
-1.171, -3.175e-5
-1.172, -3.173e-5
-1.173, -3.169e-5
-1.174, -3.167e-5
-1.175, -3.164e-5
-1.176, -3.160e-5
-1.177, -3.159e-5
-1.178, -3.155e-5
-1.179, -3.153e-5
-1.180, -3.150e-5
-1.181, -3.147e-5
-1.182, -3.145e-5
-1.183, -3.141e-5
-1.184, -3.139e-5
-1.185, -3.136e-5
-1.186, -3.133e-5
-1.187, -3.132e-5
-1.188, -3.128e-5
-1.189, -3.126e-5
-1.190, -3.124e-5
-1.191, -3.120e-5
-1.192, -3.119e-5
-1.193, -3.115e-5
-1.194, -3.113e-5
-1.195, -3.111e-5
-1.196, -3.108e-5
-1.197, -3.106e-5
-1.198, -3.103e-5
-1.199, -3.101e-5
