May 10, 2022   10:10:54
Cyclic Voltammetry
File: c:\users\nstumme\onedrive - university of iowa\documents\year 3\220510\tq\100 mv.csv
Data Source:  Experiment
Instrument Model:  CHI660D
Header: 
Note: 

Init E (V) = -1.2
High E (V) = -0.5
Low E (V) = -1.2
Init P/N = P
Scan Rate (V/s) = 0.1
Segment = 6
Sample Interval (V) = 0.001
Quiet Time (sec) = 2
Sensitivity (A/V) = 1e-4

Segment 1:

Segment 2:

Segment 3:
Segment 4:

Segment 5:
Segment 6:

Potential/V, Current/A

-1.200, -3.490e-5
-1.199, -3.482e-5
-1.198, -3.474e-5
-1.197, -3.468e-5
-1.196, -3.461e-5
-1.195, -3.455e-5
-1.194, -3.449e-5
-1.193, -3.443e-5
-1.192, -3.437e-5
-1.191, -3.432e-5
-1.190, -3.426e-5
-1.189, -3.421e-5
-1.188, -3.415e-5
-1.187, -3.409e-5
-1.186, -3.403e-5
-1.185, -3.396e-5
-1.184, -3.391e-5
-1.183, -3.385e-5
-1.182, -3.379e-5
-1.181, -3.373e-5
-1.180, -3.367e-5
-1.179, -3.361e-5
-1.178, -3.355e-5
-1.177, -3.350e-5
-1.176, -3.345e-5
-1.175, -3.339e-5
-1.174, -3.334e-5
-1.173, -3.329e-5
-1.172, -3.324e-5
-1.171, -3.320e-5
-1.170, -3.315e-5
-1.169, -3.310e-5
-1.168, -3.305e-5
-1.167, -3.300e-5
-1.166, -3.295e-5
-1.165, -3.289e-5
-1.164, -3.284e-5
-1.163, -3.279e-5
-1.162, -3.274e-5
-1.161, -3.269e-5
-1.160, -3.263e-5
-1.159, -3.258e-5
-1.158, -3.253e-5
-1.157, -3.248e-5
-1.156, -3.244e-5
-1.155, -3.238e-5
-1.154, -3.234e-5
-1.153, -3.229e-5
-1.152, -3.225e-5
-1.151, -3.220e-5
-1.150, -3.215e-5
-1.149, -3.211e-5
-1.148, -3.207e-5
-1.147, -3.202e-5
-1.146, -3.198e-5
-1.145, -3.193e-5
-1.144, -3.189e-5
-1.143, -3.184e-5
-1.142, -3.179e-5
-1.141, -3.175e-5
-1.140, -3.169e-5
-1.139, -3.165e-5
-1.138, -3.160e-5
-1.137, -3.155e-5
-1.136, -3.151e-5
-1.135, -3.146e-5
-1.134, -3.142e-5
-1.133, -3.138e-5
-1.132, -3.133e-5
-1.131, -3.130e-5
-1.130, -3.126e-5
-1.129, -3.122e-5
-1.128, -3.117e-5
-1.127, -3.113e-5
-1.126, -3.109e-5
-1.125, -3.104e-5
-1.124, -3.100e-5
-1.123, -3.096e-5
-1.122, -3.091e-5
-1.121, -3.087e-5
-1.120, -3.082e-5
-1.119, -3.079e-5
-1.118, -3.074e-5
-1.117, -3.070e-5
-1.116, -3.065e-5
-1.115, -3.061e-5
-1.114, -3.057e-5
-1.113, -3.053e-5
-1.112, -3.049e-5
-1.111, -3.045e-5
-1.110, -3.041e-5
-1.109, -3.037e-5
-1.108, -3.033e-5
-1.107, -3.029e-5
-1.106, -3.026e-5
-1.105, -3.021e-5
-1.104, -3.017e-5
-1.103, -3.013e-5
-1.102, -3.009e-5
-1.101, -3.005e-5
-1.100, -3.001e-5
-1.099, -2.997e-5
-1.098, -2.993e-5
-1.097, -2.988e-5
-1.096, -2.985e-5
-1.095, -2.981e-5
-1.094, -2.977e-5
-1.093, -2.973e-5
-1.092, -2.968e-5
-1.091, -2.964e-5
-1.090, -2.960e-5
-1.089, -2.957e-5
-1.088, -2.953e-5
-1.087, -2.949e-5
-1.086, -2.946e-5
-1.085, -2.942e-5
-1.084, -2.938e-5
-1.083, -2.934e-5
-1.082, -2.931e-5
-1.081, -2.927e-5
-1.080, -2.922e-5
-1.079, -2.918e-5
-1.078, -2.914e-5
-1.077, -2.910e-5
-1.076, -2.907e-5
-1.075, -2.902e-5
-1.074, -2.899e-5
-1.073, -2.895e-5
-1.072, -2.891e-5
-1.071, -2.888e-5
-1.070, -2.884e-5
-1.069, -2.880e-5
-1.068, -2.876e-5
-1.067, -2.872e-5
-1.066, -2.869e-5
-1.065, -2.865e-5
-1.064, -2.861e-5
-1.063, -2.857e-5
-1.062, -2.853e-5
-1.061, -2.849e-5
-1.060, -2.845e-5
-1.059, -2.841e-5
-1.058, -2.837e-5
-1.057, -2.834e-5
-1.056, -2.830e-5
-1.055, -2.826e-5
-1.054, -2.822e-5
-1.053, -2.818e-5
-1.052, -2.814e-5
-1.051, -2.811e-5
-1.050, -2.806e-5
-1.049, -2.803e-5
-1.048, -2.799e-5
-1.047, -2.794e-5
-1.046, -2.791e-5
-1.045, -2.787e-5
-1.044, -2.783e-5
-1.043, -2.779e-5
-1.042, -2.775e-5
-1.041, -2.771e-5
-1.040, -2.767e-5
-1.039, -2.763e-5
-1.038, -2.759e-5
-1.037, -2.755e-5
-1.036, -2.751e-5
-1.035, -2.747e-5
-1.034, -2.743e-5
-1.033, -2.739e-5
-1.032, -2.735e-5
-1.031, -2.731e-5
-1.030, -2.726e-5
-1.029, -2.722e-5
-1.028, -2.717e-5
-1.027, -2.713e-5
-1.026, -2.709e-5
-1.025, -2.704e-5
-1.024, -2.700e-5
-1.023, -2.696e-5
-1.022, -2.692e-5
-1.021, -2.688e-5
-1.020, -2.683e-5
-1.019, -2.679e-5
-1.018, -2.674e-5
-1.017, -2.669e-5
-1.016, -2.665e-5
-1.015, -2.660e-5
-1.014, -2.655e-5
-1.013, -2.651e-5
-1.012, -2.646e-5
-1.011, -2.642e-5
-1.010, -2.637e-5
-1.009, -2.632e-5
-1.008, -2.627e-5
-1.007, -2.622e-5
-1.006, -2.617e-5
-1.005, -2.611e-5
-1.004, -2.606e-5
-1.003, -2.601e-5
-1.002, -2.596e-5
-1.001, -2.591e-5
-1.000, -2.585e-5
-0.999, -2.580e-5
-0.998, -2.575e-5
-0.997, -2.569e-5
-0.996, -2.564e-5
-0.995, -2.558e-5
-0.994, -2.552e-5
-0.993, -2.547e-5
-0.992, -2.541e-5
-0.991, -2.535e-5
-0.990, -2.528e-5
-0.989, -2.522e-5
-0.988, -2.516e-5
-0.987, -2.509e-5
-0.986, -2.503e-5
-0.985, -2.496e-5
-0.984, -2.489e-5
-0.983, -2.482e-5
-0.982, -2.475e-5
-0.981, -2.468e-5
-0.980, -2.461e-5
-0.979, -2.454e-5
-0.978, -2.447e-5
-0.977, -2.439e-5
-0.976, -2.431e-5
-0.975, -2.424e-5
-0.974, -2.415e-5
-0.973, -2.407e-5
-0.972, -2.399e-5
-0.971, -2.390e-5
-0.970, -2.382e-5
-0.969, -2.373e-5
-0.968, -2.363e-5
-0.967, -2.354e-5
-0.966, -2.345e-5
-0.965, -2.335e-5
-0.964, -2.325e-5
-0.963, -2.315e-5
-0.962, -2.305e-5
-0.961, -2.295e-5
-0.960, -2.284e-5
-0.959, -2.273e-5
-0.958, -2.262e-5
-0.957, -2.250e-5
-0.956, -2.238e-5
-0.955, -2.226e-5
-0.954, -2.214e-5
-0.953, -2.202e-5
-0.952, -2.189e-5
-0.951, -2.177e-5
-0.950, -2.163e-5
-0.949, -2.150e-5
-0.948, -2.136e-5
-0.947, -2.123e-5
-0.946, -2.108e-5
-0.945, -2.093e-5
-0.944, -2.077e-5
-0.943, -2.062e-5
-0.942, -2.045e-5
-0.941, -2.029e-5
-0.940, -2.013e-5
-0.939, -1.995e-5
-0.938, -1.978e-5
-0.937, -1.959e-5
-0.936, -1.941e-5
-0.935, -1.922e-5
-0.934, -1.903e-5
-0.933, -1.883e-5
-0.932, -1.863e-5
-0.931, -1.843e-5
-0.930, -1.821e-5
-0.929, -1.799e-5
-0.928, -1.778e-5
-0.927, -1.755e-5
-0.926, -1.732e-5
-0.925, -1.709e-5
-0.924, -1.684e-5
-0.923, -1.660e-5
-0.922, -1.633e-5
-0.921, -1.606e-5
-0.920, -1.580e-5
-0.919, -1.553e-5
-0.918, -1.526e-5
-0.917, -1.497e-5
-0.916, -1.468e-5
-0.915, -1.439e-5
-0.914, -1.409e-5
-0.913, -1.378e-5
-0.912, -1.347e-5
-0.911, -1.315e-5
-0.910, -1.283e-5
-0.909, -1.249e-5
-0.908, -1.215e-5
-0.907, -1.179e-5
-0.906, -1.144e-5
-0.905, -1.108e-5
-0.904, -1.070e-5
-0.903, -1.034e-5
-0.902, -9.951e-6
-0.901, -9.565e-6
-0.900, -9.166e-6
-0.899, -8.757e-6
-0.898, -8.360e-6
-0.897, -7.927e-6
-0.896, -7.530e-6
-0.895, -7.125e-6
-0.894, -6.651e-6
-0.893, -6.213e-6
-0.892, -5.761e-6
-0.891, -5.302e-6
-0.890, -4.838e-6
-0.889, -4.354e-6
-0.888, -3.892e-6
-0.887, -3.392e-6
-0.886, -2.898e-6
-0.885, -2.414e-6
-0.884, -1.885e-6
-0.883, -1.380e-6
-0.882, -8.524e-7
-0.881, -3.203e-7
-0.880, 1.941e-7
-0.879, 7.355e-7
-0.878, 1.275e-6
-0.877, 1.820e-6
-0.876, 2.352e-6
-0.875, 2.905e-6
-0.874, 3.476e-6
-0.873, 4.030e-6
-0.872, 4.608e-6
-0.871, 5.175e-6
-0.870, 5.799e-6
-0.869, 6.390e-6
-0.868, 6.929e-6
-0.867, 7.510e-6
-0.866, 8.093e-6
-0.865, 8.673e-6
-0.864, 9.265e-6
-0.863, 9.814e-6
-0.862, 1.042e-5
-0.861, 1.100e-5
-0.860, 1.156e-5
-0.859, 1.217e-5
-0.858, 1.273e-5
-0.857, 1.334e-5
-0.856, 1.390e-5
-0.855, 1.447e-5
-0.854, 1.505e-5
-0.853, 1.559e-5
-0.852, 1.617e-5
-0.851, 1.671e-5
-0.850, 1.725e-5
-0.849, 1.782e-5
-0.848, 1.834e-5
-0.847, 1.888e-5
-0.846, 1.941e-5
-0.845, 1.990e-5
-0.844, 2.038e-5
-0.843, 2.087e-5
-0.842, 2.138e-5
-0.841, 2.186e-5
-0.840, 2.232e-5
-0.839, 2.281e-5
-0.838, 2.323e-5
-0.837, 2.369e-5
-0.836, 2.414e-5
-0.835, 2.455e-5
-0.834, 2.496e-5
-0.833, 2.534e-5
-0.832, 2.574e-5
-0.831, 2.610e-5
-0.830, 2.645e-5
-0.829, 2.682e-5
-0.828, 2.711e-5
-0.827, 2.745e-5
-0.826, 2.774e-5
-0.825, 2.801e-5
-0.824, 2.830e-5
-0.823, 2.854e-5
-0.822, 2.879e-5
-0.821, 2.902e-5
-0.820, 2.922e-5
-0.819, 2.934e-5
-0.818, 2.946e-5
-0.817, 2.966e-5
-0.816, 2.983e-5
-0.815, 2.996e-5
-0.814, 3.012e-5
-0.813, 3.022e-5
-0.812, 3.032e-5
-0.811, 3.042e-5
-0.810, 3.047e-5
-0.809, 3.053e-5
-0.808, 3.057e-5
-0.807, 3.061e-5
-0.806, 3.063e-5
-0.805, 3.062e-5
-0.804, 3.064e-5
-0.803, 3.059e-5
-0.802, 3.056e-5
-0.801, 3.052e-5
-0.800, 3.046e-5
-0.799, 3.040e-5
-0.798, 3.031e-5
-0.797, 3.023e-5
-0.796, 3.013e-5
-0.795, 3.001e-5
-0.794, 2.991e-5
-0.793, 2.974e-5
-0.792, 2.962e-5
-0.791, 2.949e-5
-0.790, 2.935e-5
-0.789, 2.921e-5
-0.788, 2.904e-5
-0.787, 2.888e-5
-0.786, 2.871e-5
-0.785, 2.853e-5
-0.784, 2.836e-5
-0.783, 2.816e-5
-0.782, 2.799e-5
-0.781, 2.779e-5
-0.780, 2.760e-5
-0.779, 2.741e-5
-0.778, 2.719e-5
-0.777, 2.699e-5
-0.776, 2.678e-5
-0.775, 2.658e-5
-0.774, 2.637e-5
-0.773, 2.614e-5
-0.772, 2.594e-5
-0.771, 2.573e-5
-0.770, 2.550e-5
-0.769, 2.530e-5
-0.768, 2.509e-5
-0.767, 2.489e-5
-0.766, 2.467e-5
-0.765, 2.444e-5
-0.764, 2.423e-5
-0.763, 2.401e-5
-0.762, 2.379e-5
-0.761, 2.358e-5
-0.760, 2.337e-5
-0.759, 2.316e-5
-0.758, 2.294e-5
-0.757, 2.274e-5
-0.756, 2.253e-5
-0.755, 2.232e-5
-0.754, 2.212e-5
-0.753, 2.192e-5
-0.752, 2.172e-5
-0.751, 2.152e-5
-0.750, 2.132e-5
-0.749, 2.113e-5
-0.748, 2.093e-5
-0.747, 2.074e-5
-0.746, 2.055e-5
-0.745, 2.036e-5
-0.744, 2.018e-5
-0.743, 1.999e-5
-0.742, 1.980e-5
-0.741, 1.962e-5
-0.740, 1.944e-5
-0.739, 1.927e-5
-0.738, 1.909e-5
-0.737, 1.892e-5
-0.736, 1.875e-5
-0.735, 1.858e-5
-0.734, 1.842e-5
-0.733, 1.826e-5
-0.732, 1.810e-5
-0.731, 1.794e-5
-0.730, 1.778e-5
-0.729, 1.763e-5
-0.728, 1.748e-5
-0.727, 1.732e-5
-0.726, 1.718e-5
-0.725, 1.703e-5
-0.724, 1.688e-5
-0.723, 1.674e-5
-0.722, 1.659e-5
-0.721, 1.645e-5
-0.720, 1.632e-5
-0.719, 1.618e-5
-0.718, 1.604e-5
-0.717, 1.591e-5
-0.716, 1.579e-5
-0.715, 1.566e-5
-0.714, 1.553e-5
-0.713, 1.540e-5
-0.712, 1.528e-5
-0.711, 1.515e-5
-0.710, 1.503e-5
-0.709, 1.491e-5
-0.708, 1.480e-5
-0.707, 1.468e-5
-0.706, 1.456e-5
-0.705, 1.445e-5
-0.704, 1.434e-5
-0.703, 1.423e-5
-0.702, 1.412e-5
-0.701, 1.401e-5
-0.700, 1.390e-5
-0.699, 1.380e-5
-0.698, 1.369e-5
-0.697, 1.359e-5
-0.696, 1.349e-5
-0.695, 1.339e-5
-0.694, 1.329e-5
-0.693, 1.319e-5
-0.692, 1.310e-5
-0.691, 1.299e-5
-0.690, 1.291e-5
-0.689, 1.281e-5
-0.688, 1.272e-5
-0.687, 1.263e-5
-0.686, 1.253e-5
-0.685, 1.245e-5
-0.684, 1.236e-5
-0.683, 1.227e-5
-0.682, 1.218e-5
-0.681, 1.210e-5
-0.680, 1.201e-5
-0.679, 1.193e-5
-0.678, 1.185e-5
-0.677, 1.176e-5
-0.676, 1.169e-5
-0.675, 1.161e-5
-0.674, 1.152e-5
-0.673, 1.145e-5
-0.672, 1.137e-5
-0.671, 1.129e-5
-0.670, 1.122e-5
-0.669, 1.114e-5
-0.668, 1.107e-5
-0.667, 1.100e-5
-0.666, 1.093e-5
-0.665, 1.086e-5
-0.664, 1.078e-5
-0.663, 1.072e-5
-0.662, 1.064e-5
-0.661, 1.057e-5
-0.660, 1.051e-5
-0.659, 1.044e-5
-0.658, 1.037e-5
-0.657, 1.030e-5
-0.656, 1.024e-5
-0.655, 1.018e-5
-0.654, 1.010e-5
-0.653, 1.005e-5
-0.652, 9.982e-6
-0.651, 9.920e-6
-0.650, 9.861e-6
-0.649, 9.802e-6
-0.648, 9.745e-6
-0.647, 9.683e-6
-0.646, 9.618e-6
-0.645, 9.564e-6
-0.644, 9.505e-6
-0.643, 9.450e-6
-0.642, 9.391e-6
-0.641, 9.332e-6
-0.640, 9.277e-6
-0.639, 9.218e-6
-0.638, 9.166e-6
-0.637, 9.108e-6
-0.636, 9.058e-6
-0.635, 9.007e-6
-0.634, 8.951e-6
-0.633, 8.899e-6
-0.632, 8.847e-6
-0.631, 8.794e-6
-0.630, 8.747e-6
-0.629, 8.691e-6
-0.628, 8.642e-6
-0.627, 8.594e-6
-0.626, 8.545e-6
-0.625, 8.500e-6
-0.624, 8.446e-6
-0.623, 8.400e-6
-0.622, 8.355e-6
-0.621, 8.307e-6
-0.620, 8.263e-6
-0.619, 8.213e-6
-0.618, 8.167e-6
-0.617, 8.123e-6
-0.616, 8.081e-6
-0.615, 8.039e-6
-0.614, 7.993e-6
-0.613, 7.951e-6
-0.612, 7.903e-6
-0.611, 7.861e-6
-0.610, 7.823e-6
-0.609, 7.777e-6
-0.608, 7.738e-6
-0.607, 7.693e-6
-0.606, 7.649e-6
-0.605, 7.617e-6
-0.604, 7.576e-6
-0.603, 7.538e-6
-0.602, 7.497e-6
-0.601, 7.457e-6
-0.600, 7.419e-6
-0.599, 7.378e-6
-0.598, 7.347e-6
-0.597, 7.308e-6
-0.596, 7.272e-6
-0.595, 7.237e-6
-0.594, 7.192e-6
-0.593, 7.160e-6
-0.592, 7.129e-6
-0.591, 7.095e-6
-0.590, 7.064e-6
-0.589, 7.023e-6
-0.588, 6.993e-6
-0.587, 6.957e-6
-0.586, 6.921e-6
-0.585, 6.893e-6
-0.584, 6.861e-6
-0.583, 6.833e-6
-0.582, 6.799e-6
-0.581, 6.766e-6
-0.580, 6.738e-6
-0.579, 6.701e-6
-0.578, 6.673e-6
-0.577, 6.646e-6
-0.576, 6.619e-6
-0.575, 6.595e-6
-0.574, 6.561e-6
-0.573, 6.538e-6
-0.572, 6.508e-6
-0.571, 6.481e-6
-0.570, 6.455e-6
-0.569, 6.425e-6
-0.568, 6.404e-6
-0.567, 6.377e-6
-0.566, 6.352e-6
-0.565, 6.330e-6
-0.564, 6.303e-6
-0.563, 6.285e-6
-0.562, 6.260e-6
-0.561, 6.237e-6
-0.560, 6.216e-6
-0.559, 6.192e-6
-0.558, 6.177e-6
-0.557, 6.158e-6
-0.556, 6.140e-6
-0.555, 6.125e-6
-0.554, 6.104e-6
-0.553, 6.090e-6
-0.552, 6.073e-6
-0.551, 6.057e-6
-0.550, 6.045e-6
-0.549, 6.029e-6
-0.548, 6.021e-6
-0.547, 6.006e-6
-0.546, 5.995e-6
-0.545, 5.990e-6
-0.544, 5.978e-6
-0.543, 5.975e-6
-0.542, 5.969e-6
-0.541, 5.966e-6
-0.540, 5.965e-6
-0.539, 5.961e-6
-0.538, 5.964e-6
-0.537, 5.964e-6
-0.536, 5.969e-6
-0.535, 5.979e-6
-0.534, 5.984e-6
-0.533, 5.999e-6
-0.532, 6.012e-6
-0.531, 6.027e-6
-0.530, 6.046e-6
-0.529, 6.065e-6
-0.528, 6.090e-6
-0.527, 6.115e-6
-0.526, 6.143e-6
-0.525, 6.175e-6
-0.524, 6.204e-6
-0.523, 6.246e-6
-0.522, 6.285e-6
-0.521, 6.329e-6
-0.520, 6.378e-6
-0.519, 6.422e-6
-0.518, 6.477e-6
-0.517, 6.530e-6
-0.516, 6.590e-6
-0.515, 6.649e-6
-0.514, 6.708e-6
-0.513, 6.779e-6
-0.512, 6.850e-6
-0.511, 6.918e-6
-0.510, 6.997e-6
-0.509, 7.071e-6
-0.508, 7.148e-6
-0.507, 7.231e-6
-0.506, 7.313e-6
-0.505, 7.395e-6
-0.504, 7.485e-6
-0.503, 7.577e-6
-0.502, 7.666e-6
-0.501, 7.764e-6
-0.500, 7.772e-6
-0.501, 7.470e-6
-0.502, 7.181e-6
-0.503, 6.943e-6
-0.504, 6.731e-6
-0.505, 6.548e-6
-0.506, 6.373e-6
-0.507, 6.215e-6
-0.508, 6.064e-6
-0.509, 5.924e-6
-0.510, 5.797e-6
-0.511, 5.665e-6
-0.512, 5.544e-6
-0.513, 5.426e-6
-0.514, 5.314e-6
-0.515, 5.210e-6
-0.516, 5.111e-6
-0.517, 5.014e-6
-0.518, 4.921e-6
-0.519, 4.834e-6
-0.520, 4.748e-6
-0.521, 4.669e-6
-0.522, 4.595e-6
-0.523, 4.517e-6
-0.524, 4.447e-6
-0.525, 4.381e-6
-0.526, 4.312e-6
-0.527, 4.251e-6
-0.528, 4.195e-6
-0.529, 4.139e-6
-0.530, 4.088e-6
-0.531, 4.031e-6
-0.532, 3.983e-6
-0.533, 3.935e-6
-0.534, 3.889e-6
-0.535, 3.851e-6
-0.536, 3.803e-6
-0.537, 3.767e-6
-0.538, 3.731e-6
-0.539, 3.697e-6
-0.540, 3.667e-6
-0.541, 3.631e-6
-0.542, 3.602e-6
-0.543, 3.570e-6
-0.544, 3.541e-6
-0.545, 3.513e-6
-0.546, 3.482e-6
-0.547, 3.460e-6
-0.548, 3.436e-6
-0.549, 3.412e-6
-0.550, 3.393e-6
-0.551, 3.366e-6
-0.552, 3.349e-6
-0.553, 3.323e-6
-0.554, 3.300e-6
-0.555, 3.282e-6
-0.556, 3.260e-6
-0.557, 3.246e-6
-0.558, 3.226e-6
-0.559, 3.208e-6
-0.560, 3.195e-6
-0.561, 3.173e-6
-0.562, 3.158e-6
-0.563, 3.140e-6
-0.564, 3.122e-6
-0.565, 3.108e-6
-0.566, 3.087e-6
-0.567, 3.074e-6
-0.568, 3.051e-6
-0.569, 3.036e-6
-0.570, 3.024e-6
-0.571, 3.005e-6
-0.572, 2.994e-6
-0.573, 2.980e-6
-0.574, 2.965e-6
-0.575, 2.952e-6
-0.576, 2.933e-6
-0.577, 2.922e-6
-0.578, 2.907e-6
-0.579, 2.892e-6
-0.580, 2.881e-6
-0.581, 2.862e-6
-0.582, 2.853e-6
-0.583, 2.836e-6
-0.584, 2.821e-6
-0.585, 2.807e-6
-0.586, 2.789e-6
-0.587, 2.781e-6
-0.588, 2.767e-6
-0.589, 2.756e-6
-0.590, 2.746e-6
-0.591, 2.731e-6
-0.592, 2.722e-6
-0.593, 2.707e-6
-0.594, 2.693e-6
-0.595, 2.684e-6
-0.596, 2.667e-6
-0.597, 2.658e-6
-0.598, 2.642e-6
-0.599, 2.630e-6
-0.600, 2.620e-6
-0.601, 2.604e-6
-0.602, 2.595e-6
-0.603, 2.578e-6
-0.604, 2.566e-6
-0.605, 2.556e-6
-0.606, 2.539e-6
-0.607, 2.531e-6
-0.608, 2.517e-6
-0.609, 2.506e-6
-0.610, 2.497e-6
-0.611, 2.482e-6
-0.612, 2.475e-6
-0.613, 2.461e-6
-0.614, 2.448e-6
-0.615, 2.438e-6
-0.616, 2.421e-6
-0.617, 2.414e-6
-0.618, 2.400e-6
-0.619, 2.389e-6
-0.620, 2.379e-6
-0.621, 2.363e-6
-0.622, 2.354e-6
-0.623, 2.339e-6
-0.624, 2.326e-6
-0.625, 2.316e-6
-0.626, 2.300e-6
-0.627, 2.293e-6
-0.628, 2.280e-6
-0.629, 2.269e-6
-0.630, 2.261e-6
-0.631, 2.246e-6
-0.632, 2.238e-6
-0.633, 2.224e-6
-0.634, 2.213e-6
-0.635, 2.203e-6
-0.636, 2.187e-6
-0.637, 2.180e-6
-0.638, 2.165e-6
-0.639, 2.154e-6
-0.640, 2.145e-6
-0.641, 2.129e-6
-0.642, 2.120e-6
-0.643, 2.105e-6
-0.644, 2.094e-6
-0.645, 2.084e-6
-0.646, 2.068e-6
-0.647, 2.059e-6
-0.648, 2.045e-6
-0.649, 2.033e-6
-0.650, 2.025e-6
-0.651, 2.010e-6
-0.652, 2.001e-6
-0.653, 1.987e-6
-0.654, 1.976e-6
-0.655, 1.966e-6
-0.656, 1.950e-6
-0.657, 1.941e-6
-0.658, 1.926e-6
-0.659, 1.913e-6
-0.660, 1.902e-6
-0.661, 1.885e-6
-0.662, 1.875e-6
-0.663, 1.859e-6
-0.664, 1.844e-6
-0.665, 1.832e-6
-0.666, 1.814e-6
-0.667, 1.805e-6
-0.668, 1.790e-6
-0.669, 1.778e-6
-0.670, 1.767e-6
-0.671, 1.750e-6
-0.672, 1.741e-6
-0.673, 1.724e-6
-0.674, 1.710e-6
-0.675, 1.698e-6
-0.676, 1.680e-6
-0.677, 1.668e-6
-0.678, 1.651e-6
-0.679, 1.636e-6
-0.680, 1.621e-6
-0.681, 1.601e-6
-0.682, 1.589e-6
-0.683, 1.570e-6
-0.684, 1.555e-6
-0.685, 1.541e-6
-0.686, 1.520e-6
-0.687, 1.508e-6
-0.688, 1.490e-6
-0.689, 1.475e-6
-0.690, 1.459e-6
-0.691, 1.440e-6
-0.692, 1.426e-6
-0.693, 1.404e-6
-0.694, 1.386e-6
-0.695, 1.367e-6
-0.696, 1.342e-6
-0.697, 1.327e-6
-0.698, 1.306e-6
-0.699, 1.288e-6
-0.700, 1.271e-6
-0.701, 1.249e-6
-0.702, 1.231e-6
-0.703, 1.208e-6
-0.704, 1.186e-6
-0.705, 1.166e-6
-0.706, 1.141e-6
-0.707, 1.120e-6
-0.708, 1.092e-6
-0.709, 1.069e-6
-0.710, 1.047e-6
-0.711, 1.020e-6
-0.712, 9.988e-7
-0.713, 9.727e-7
-0.714, 9.469e-7
-0.715, 9.212e-7
-0.716, 8.898e-7
-0.717, 8.612e-7
-0.718, 8.304e-7
-0.719, 8.047e-7
-0.720, 7.786e-7
-0.721, 7.468e-7
-0.722, 7.180e-7
-0.723, 6.855e-7
-0.724, 6.522e-7
-0.725, 6.184e-7
-0.726, 5.779e-7
-0.727, 5.460e-7
-0.728, 5.099e-7
-0.729, 4.771e-7
-0.730, 4.427e-7
-0.731, 3.999e-7
-0.732, 3.615e-7
-0.733, 3.230e-7
-0.734, 2.835e-7
-0.735, 2.435e-7
-0.736, 1.978e-7
-0.737, 1.525e-7
-0.738, 1.021e-7
-0.739, 5.360e-8
-0.740, 9.031e-9
-0.741, -4.401e-8
-0.742, -9.442e-8
-0.743, -1.454e-7
-0.744, -1.987e-7
-0.745, -2.525e-7
-0.746, -3.123e-7
-0.747, -3.766e-7
-0.748, -4.392e-7
-0.749, -4.961e-7
-0.750, -5.612e-7
-0.751, -6.305e-7
-0.752, -6.945e-7
-0.753, -7.629e-7
-0.754, -8.395e-7
-0.755, -9.161e-7
-0.756, -9.936e-7
-0.757, -1.076e-6
-0.758, -1.156e-6
-0.759, -1.237e-6
-0.760, -1.325e-6
-0.761, -1.415e-6
-0.762, -1.507e-6
-0.763, -1.603e-6
-0.764, -1.699e-6
-0.765, -1.797e-6
-0.766, -1.899e-6
-0.767, -2.008e-6
-0.768, -2.125e-6
-0.769, -2.240e-6
-0.770, -2.358e-6
-0.771, -2.471e-6
-0.772, -2.594e-6
-0.773, -2.719e-6
-0.774, -2.855e-6
-0.775, -2.985e-6
-0.776, -3.122e-6
-0.777, -3.266e-6
-0.778, -3.411e-6
-0.779, -3.559e-6
-0.780, -3.710e-6
-0.781, -3.877e-6
-0.782, -4.042e-6
-0.783, -4.207e-6
-0.784, -4.378e-6
-0.785, -4.552e-6
-0.786, -4.734e-6
-0.787, -4.919e-6
-0.788, -5.107e-6
-0.789, -5.306e-6
-0.790, -5.508e-6
-0.791, -5.711e-6
-0.792, -5.924e-6
-0.793, -6.136e-6
-0.794, -6.341e-6
-0.795, -6.560e-6
-0.796, -6.798e-6
-0.797, -7.039e-6
-0.798, -7.278e-6
-0.799, -7.531e-6
-0.800, -7.782e-6
-0.801, -8.041e-6
-0.802, -8.307e-6
-0.803, -8.572e-6
-0.804, -8.849e-6
-0.805, -9.130e-6
-0.806, -9.416e-6
-0.807, -9.715e-6
-0.808, -1.001e-5
-0.809, -1.032e-5
-0.810, -1.062e-5
-0.811, -1.094e-5
-0.812, -1.127e-5
-0.813, -1.159e-5
-0.814, -1.192e-5
-0.815, -1.226e-5
-0.816, -1.260e-5
-0.817, -1.295e-5
-0.818, -1.330e-5
-0.819, -1.363e-5
-0.820, -1.395e-5
-0.821, -1.433e-5
-0.822, -1.470e-5
-0.823, -1.508e-5
-0.824, -1.547e-5
-0.825, -1.586e-5
-0.826, -1.624e-5
-0.827, -1.663e-5
-0.828, -1.703e-5
-0.829, -1.743e-5
-0.830, -1.783e-5
-0.831, -1.825e-5
-0.832, -1.867e-5
-0.833, -1.907e-5
-0.834, -1.950e-5
-0.835, -1.992e-5
-0.836, -2.034e-5
-0.837, -2.079e-5
-0.838, -2.119e-5
-0.839, -2.162e-5
-0.840, -2.205e-5
-0.841, -2.247e-5
-0.842, -2.290e-5
-0.843, -2.332e-5
-0.844, -2.377e-5
-0.845, -2.416e-5
-0.846, -2.458e-5
-0.847, -2.503e-5
-0.848, -2.545e-5
-0.849, -2.588e-5
-0.850, -2.632e-5
-0.851, -2.674e-5
-0.852, -2.717e-5
-0.853, -2.759e-5
-0.854, -2.802e-5
-0.855, -2.842e-5
-0.856, -2.884e-5
-0.857, -2.925e-5
-0.858, -2.966e-5
-0.859, -3.007e-5
-0.860, -3.048e-5
-0.861, -3.087e-5
-0.862, -3.126e-5
-0.863, -3.164e-5
-0.864, -3.203e-5
-0.865, -3.239e-5
-0.866, -3.277e-5
-0.867, -3.313e-5
-0.868, -3.348e-5
-0.869, -3.385e-5
-0.870, -3.420e-5
-0.871, -3.458e-5
-0.872, -3.493e-5
-0.873, -3.525e-5
-0.874, -3.557e-5
-0.875, -3.589e-5
-0.876, -3.618e-5
-0.877, -3.648e-5
-0.878, -3.677e-5
-0.879, -3.707e-5
-0.880, -3.734e-5
-0.881, -3.761e-5
-0.882, -3.790e-5
-0.883, -3.815e-5
-0.884, -3.841e-5
-0.885, -3.866e-5
-0.886, -3.889e-5
-0.887, -3.912e-5
-0.888, -3.934e-5
-0.889, -3.956e-5
-0.890, -3.976e-5
-0.891, -3.995e-5
-0.892, -4.015e-5
-0.893, -4.032e-5
-0.894, -4.050e-5
-0.895, -4.068e-5
-0.896, -4.081e-5
-0.897, -4.095e-5
-0.898, -4.110e-5
-0.899, -4.125e-5
-0.900, -4.138e-5
-0.901, -4.151e-5
-0.902, -4.162e-5
-0.903, -4.172e-5
-0.904, -4.184e-5
-0.905, -4.194e-5
-0.906, -4.203e-5
-0.907, -4.212e-5
-0.908, -4.219e-5
-0.909, -4.227e-5
-0.910, -4.233e-5
-0.911, -4.239e-5
-0.912, -4.244e-5
-0.913, -4.248e-5
-0.914, -4.253e-5
-0.915, -4.256e-5
-0.916, -4.259e-5
-0.917, -4.261e-5
-0.918, -4.263e-5
-0.919, -4.264e-5
-0.920, -4.265e-5
-0.921, -4.266e-5
-0.922, -4.267e-5
-0.923, -4.267e-5
-0.924, -4.265e-5
-0.925, -4.263e-5
-0.926, -4.261e-5
-0.927, -4.258e-5
-0.928, -4.255e-5
-0.929, -4.252e-5
-0.930, -4.248e-5
-0.931, -4.245e-5
-0.932, -4.240e-5
-0.933, -4.235e-5
-0.934, -4.230e-5
-0.935, -4.224e-5
-0.936, -4.218e-5
-0.937, -4.213e-5
-0.938, -4.206e-5
-0.939, -4.199e-5
-0.940, -4.192e-5
-0.941, -4.185e-5
-0.942, -4.177e-5
-0.943, -4.170e-5
-0.944, -4.162e-5
-0.945, -4.154e-5
-0.946, -4.146e-5
-0.947, -4.137e-5
-0.948, -4.127e-5
-0.949, -4.119e-5
-0.950, -4.111e-5
-0.951, -4.102e-5
-0.952, -4.092e-5
-0.953, -4.083e-5
-0.954, -4.074e-5
-0.955, -4.064e-5
-0.956, -4.055e-5
-0.957, -4.045e-5
-0.958, -4.034e-5
-0.959, -4.025e-5
-0.960, -4.015e-5
-0.961, -4.005e-5
-0.962, -3.994e-5
-0.963, -3.984e-5
-0.964, -3.974e-5
-0.965, -3.964e-5
-0.966, -3.954e-5
-0.967, -3.943e-5
-0.968, -3.933e-5
-0.969, -3.923e-5
-0.970, -3.913e-5
-0.971, -3.902e-5
-0.972, -3.892e-5
-0.973, -3.882e-5
-0.974, -3.871e-5
-0.975, -3.860e-5
-0.976, -3.850e-5
-0.977, -3.839e-5
-0.978, -3.829e-5
-0.979, -3.819e-5
-0.980, -3.808e-5
-0.981, -3.798e-5
-0.982, -3.788e-5
-0.983, -3.778e-5
-0.984, -3.767e-5
-0.985, -3.757e-5
-0.986, -3.747e-5
-0.987, -3.737e-5
-0.988, -3.727e-5
-0.989, -3.717e-5
-0.990, -3.707e-5
-0.991, -3.698e-5
-0.992, -3.688e-5
-0.993, -3.678e-5
-0.994, -3.668e-5
-0.995, -3.659e-5
-0.996, -3.649e-5
-0.997, -3.639e-5
-0.998, -3.630e-5
-0.999, -3.620e-5
-1.000, -3.611e-5
-1.001, -3.602e-5
-1.002, -3.592e-5
-1.003, -3.584e-5
-1.004, -3.575e-5
-1.005, -3.566e-5
-1.006, -3.557e-5
-1.007, -3.548e-5
-1.008, -3.540e-5
-1.009, -3.531e-5
-1.010, -3.522e-5
-1.011, -3.514e-5
-1.012, -3.505e-5
-1.013, -3.496e-5
-1.014, -3.488e-5
-1.015, -3.479e-5
-1.016, -3.471e-5
-1.017, -3.462e-5
-1.018, -3.454e-5
-1.019, -3.446e-5
-1.020, -3.438e-5
-1.021, -3.431e-5
-1.022, -3.423e-5
-1.023, -3.416e-5
-1.024, -3.408e-5
-1.025, -3.400e-5
-1.026, -3.392e-5
-1.027, -3.384e-5
-1.028, -3.377e-5
-1.029, -3.370e-5
-1.030, -3.362e-5
-1.031, -3.355e-5
-1.032, -3.348e-5
-1.033, -3.341e-5
-1.034, -3.333e-5
-1.035, -3.326e-5
-1.036, -3.320e-5
-1.037, -3.312e-5
-1.038, -3.305e-5
-1.039, -3.299e-5
-1.040, -3.292e-5
-1.041, -3.286e-5
-1.042, -3.279e-5
-1.043, -3.273e-5
-1.044, -3.266e-5
-1.045, -3.260e-5
-1.046, -3.253e-5
-1.047, -3.246e-5
-1.048, -3.240e-5
-1.049, -3.233e-5
-1.050, -3.227e-5
-1.051, -3.222e-5
-1.052, -3.215e-5
-1.053, -3.209e-5
-1.054, -3.204e-5
-1.055, -3.198e-5
-1.056, -3.192e-5
-1.057, -3.186e-5
-1.058, -3.180e-5
-1.059, -3.175e-5
-1.060, -3.168e-5
-1.061, -3.163e-5
-1.062, -3.157e-5
-1.063, -3.152e-5
-1.064, -3.147e-5
-1.065, -3.141e-5
-1.066, -3.136e-5
-1.067, -3.130e-5
-1.068, -3.125e-5
-1.069, -3.119e-5
-1.070, -3.114e-5
-1.071, -3.109e-5
-1.072, -3.103e-5
-1.073, -3.098e-5
-1.074, -3.093e-5
-1.075, -3.088e-5
-1.076, -3.083e-5
-1.077, -3.078e-5
-1.078, -3.073e-5
-1.079, -3.068e-5
-1.080, -3.063e-5
-1.081, -3.059e-5
-1.082, -3.054e-5
-1.083, -3.050e-5
-1.084, -3.045e-5
-1.085, -3.041e-5
-1.086, -3.036e-5
-1.087, -3.031e-5
-1.088, -3.027e-5
-1.089, -3.022e-5
-1.090, -3.017e-5
-1.091, -3.012e-5
-1.092, -3.008e-5
-1.093, -3.004e-5
-1.094, -2.999e-5
-1.095, -2.994e-5
-1.096, -2.990e-5
-1.097, -2.986e-5
-1.098, -2.982e-5
-1.099, -2.978e-5
-1.100, -2.973e-5
-1.101, -2.969e-5
-1.102, -2.965e-5
-1.103, -2.961e-5
-1.104, -2.957e-5
-1.105, -2.953e-5
-1.106, -2.950e-5
-1.107, -2.945e-5
-1.108, -2.941e-5
-1.109, -2.937e-5
-1.110, -2.933e-5
-1.111, -2.930e-5
-1.112, -2.925e-5
-1.113, -2.922e-5
-1.114, -2.918e-5
-1.115, -2.914e-5
-1.116, -2.911e-5
-1.117, -2.907e-5
-1.118, -2.904e-5
-1.119, -2.900e-5
-1.120, -2.896e-5
-1.121, -2.893e-5
-1.122, -2.889e-5
-1.123, -2.885e-5
-1.124, -2.882e-5
-1.125, -2.878e-5
-1.126, -2.875e-5
-1.127, -2.872e-5
-1.128, -2.869e-5
-1.129, -2.865e-5
-1.130, -2.862e-5
-1.131, -2.858e-5
-1.132, -2.854e-5
-1.133, -2.851e-5
-1.134, -2.848e-5
-1.135, -2.845e-5
-1.136, -2.841e-5
-1.137, -2.838e-5
-1.138, -2.836e-5
-1.139, -2.832e-5
-1.140, -2.829e-5
-1.141, -2.826e-5
-1.142, -2.822e-5
-1.143, -2.820e-5
-1.144, -2.816e-5
-1.145, -2.813e-5
-1.146, -2.810e-5
-1.147, -2.807e-5
-1.148, -2.804e-5
-1.149, -2.801e-5
-1.150, -2.798e-5
-1.151, -2.796e-5
-1.152, -2.792e-5
-1.153, -2.789e-5
-1.154, -2.787e-5
-1.155, -2.784e-5
-1.156, -2.781e-5
-1.157, -2.778e-5
-1.158, -2.775e-5
-1.159, -2.772e-5
-1.160, -2.769e-5
-1.161, -2.767e-5
-1.162, -2.764e-5
-1.163, -2.762e-5
-1.164, -2.759e-5
-1.165, -2.756e-5
-1.166, -2.754e-5
-1.167, -2.751e-5
-1.168, -2.749e-5
-1.169, -2.746e-5
-1.170, -2.743e-5
-1.171, -2.741e-5
-1.172, -2.738e-5
-1.173, -2.736e-5
-1.174, -2.733e-5
-1.175, -2.730e-5
-1.176, -2.727e-5
-1.177, -2.725e-5
-1.178, -2.723e-5
-1.179, -2.720e-5
-1.180, -2.718e-5
-1.181, -2.716e-5
-1.182, -2.713e-5
-1.183, -2.711e-5
-1.184, -2.708e-5
-1.185, -2.706e-5
-1.186, -2.704e-5
-1.187, -2.701e-5
-1.188, -2.699e-5
-1.189, -2.697e-5
-1.190, -2.695e-5
-1.191, -2.693e-5
-1.192, -2.690e-5
-1.193, -2.688e-5
-1.194, -2.685e-5
-1.195, -2.683e-5
-1.196, -2.681e-5
-1.197, -2.679e-5
-1.198, -2.677e-5
-1.199, -2.674e-5
-1.200, -2.671e-5
-1.199, -2.664e-5
-1.198, -2.657e-5
-1.197, -2.653e-5
-1.196, -2.648e-5
-1.195, -2.643e-5
-1.194, -2.639e-5
-1.193, -2.634e-5
-1.192, -2.630e-5
-1.191, -2.626e-5
-1.190, -2.622e-5
-1.189, -2.618e-5
-1.188, -2.614e-5
-1.187, -2.610e-5
-1.186, -2.606e-5
-1.185, -2.602e-5
-1.184, -2.599e-5
-1.183, -2.595e-5
-1.182, -2.592e-5
-1.181, -2.588e-5
-1.180, -2.584e-5
-1.179, -2.581e-5
-1.178, -2.577e-5
-1.177, -2.573e-5
-1.176, -2.570e-5
-1.175, -2.566e-5
-1.174, -2.563e-5
-1.173, -2.559e-5
-1.172, -2.556e-5
-1.171, -2.553e-5
-1.170, -2.550e-5
-1.169, -2.547e-5
-1.168, -2.544e-5
-1.167, -2.541e-5
-1.166, -2.537e-5
-1.165, -2.534e-5
-1.164, -2.531e-5
-1.163, -2.527e-5
-1.162, -2.525e-5
-1.161, -2.521e-5
-1.160, -2.519e-5
-1.159, -2.516e-5
-1.158, -2.512e-5
-1.157, -2.509e-5
-1.156, -2.506e-5
-1.155, -2.503e-5
-1.154, -2.500e-5
-1.153, -2.497e-5
-1.152, -2.495e-5
-1.151, -2.492e-5
-1.150, -2.489e-5
-1.149, -2.486e-5
-1.148, -2.483e-5
-1.147, -2.481e-5
-1.146, -2.478e-5
-1.145, -2.475e-5
-1.144, -2.472e-5
-1.143, -2.469e-5
-1.142, -2.466e-5
-1.141, -2.463e-5
-1.140, -2.460e-5
-1.139, -2.458e-5
-1.138, -2.455e-5
-1.137, -2.452e-5
-1.136, -2.449e-5
-1.135, -2.447e-5
-1.134, -2.444e-5
-1.133, -2.441e-5
-1.132, -2.439e-5
-1.131, -2.436e-5
-1.130, -2.433e-5
-1.129, -2.431e-5
-1.128, -2.428e-5
-1.127, -2.426e-5
-1.126, -2.423e-5
-1.125, -2.420e-5
-1.124, -2.418e-5
-1.123, -2.415e-5
-1.122, -2.413e-5
-1.121, -2.410e-5
-1.120, -2.407e-5
-1.119, -2.404e-5
-1.118, -2.402e-5
-1.117, -2.400e-5
-1.116, -2.397e-5
-1.115, -2.395e-5
-1.114, -2.392e-5
-1.113, -2.389e-5
-1.112, -2.386e-5
-1.111, -2.384e-5
-1.110, -2.381e-5
-1.109, -2.379e-5
-1.108, -2.376e-5
-1.107, -2.374e-5
-1.106, -2.372e-5
-1.105, -2.369e-5
-1.104, -2.367e-5
-1.103, -2.364e-5
-1.102, -2.362e-5
-1.101, -2.359e-5
-1.100, -2.357e-5
-1.099, -2.355e-5
-1.098, -2.352e-5
-1.097, -2.350e-5
-1.096, -2.347e-5
-1.095, -2.345e-5
-1.094, -2.342e-5
-1.093, -2.339e-5
-1.092, -2.337e-5
-1.091, -2.334e-5
-1.090, -2.332e-5
-1.089, -2.330e-5
-1.088, -2.327e-5
-1.087, -2.325e-5
-1.086, -2.323e-5
-1.085, -2.320e-5
-1.084, -2.318e-5
-1.083, -2.315e-5
-1.082, -2.313e-5
-1.081, -2.310e-5
-1.080, -2.308e-5
-1.079, -2.306e-5
-1.078, -2.303e-5
-1.077, -2.302e-5
-1.076, -2.299e-5
-1.075, -2.296e-5
-1.074, -2.294e-5
-1.073, -2.291e-5
-1.072, -2.289e-5
-1.071, -2.286e-5
-1.070, -2.284e-5
-1.069, -2.282e-5
-1.068, -2.279e-5
-1.067, -2.277e-5
-1.066, -2.275e-5
-1.065, -2.272e-5
-1.064, -2.270e-5
-1.063, -2.267e-5
-1.062, -2.265e-5
-1.061, -2.263e-5
-1.060, -2.260e-5
-1.059, -2.258e-5
-1.058, -2.255e-5
-1.057, -2.253e-5
-1.056, -2.250e-5
-1.055, -2.248e-5
-1.054, -2.245e-5
-1.053, -2.243e-5
-1.052, -2.241e-5
-1.051, -2.238e-5
-1.050, -2.235e-5
-1.049, -2.233e-5
-1.048, -2.230e-5
-1.047, -2.228e-5
-1.046, -2.225e-5
-1.045, -2.223e-5
-1.044, -2.221e-5
-1.043, -2.218e-5
-1.042, -2.216e-5
-1.041, -2.213e-5
-1.040, -2.210e-5
-1.039, -2.208e-5
-1.038, -2.205e-5
-1.037, -2.203e-5
-1.036, -2.200e-5
-1.035, -2.197e-5
-1.034, -2.195e-5
-1.033, -2.192e-5
-1.032, -2.189e-5
-1.031, -2.186e-5
-1.030, -2.184e-5
-1.029, -2.181e-5
-1.028, -2.178e-5
-1.027, -2.176e-5
-1.026, -2.173e-5
-1.025, -2.170e-5
-1.024, -2.167e-5
-1.023, -2.164e-5
-1.022, -2.162e-5
-1.021, -2.159e-5
-1.020, -2.156e-5
-1.019, -2.153e-5
-1.018, -2.150e-5
-1.017, -2.147e-5
-1.016, -2.144e-5
-1.015, -2.141e-5
-1.014, -2.138e-5
-1.013, -2.135e-5
-1.012, -2.132e-5
-1.011, -2.129e-5
-1.010, -2.126e-5
-1.009, -2.123e-5
-1.008, -2.119e-5
-1.007, -2.116e-5
-1.006, -2.112e-5
-1.005, -2.109e-5
-1.004, -2.106e-5
-1.003, -2.102e-5
-1.002, -2.099e-5
-1.001, -2.096e-5
-1.000, -2.092e-5
-0.999, -2.089e-5
-0.998, -2.085e-5
-0.997, -2.082e-5
-0.996, -2.077e-5
-0.995, -2.073e-5
-0.994, -2.070e-5
-0.993, -2.065e-5
-0.992, -2.061e-5
-0.991, -2.058e-5
-0.990, -2.053e-5
-0.989, -2.049e-5
-0.988, -2.045e-5
-0.987, -2.040e-5
-0.986, -2.036e-5
-0.985, -2.031e-5
-0.984, -2.027e-5
-0.983, -2.022e-5
-0.982, -2.018e-5
-0.981, -2.013e-5
-0.980, -2.008e-5
-0.979, -2.003e-5
-0.978, -1.997e-5
-0.977, -1.992e-5
-0.976, -1.987e-5
-0.975, -1.981e-5
-0.974, -1.975e-5
-0.973, -1.969e-5
-0.972, -1.964e-5
-0.971, -1.958e-5
-0.970, -1.952e-5
-0.969, -1.946e-5
-0.968, -1.940e-5
-0.967, -1.934e-5
-0.966, -1.927e-5
-0.965, -1.920e-5
-0.964, -1.914e-5
-0.963, -1.906e-5
-0.962, -1.899e-5
-0.961, -1.892e-5
-0.960, -1.884e-5
-0.959, -1.877e-5
-0.958, -1.869e-5
-0.957, -1.861e-5
-0.956, -1.853e-5
-0.955, -1.844e-5
-0.954, -1.836e-5
-0.953, -1.827e-5
-0.952, -1.818e-5
-0.951, -1.809e-5
-0.950, -1.799e-5
-0.949, -1.790e-5
-0.948, -1.780e-5
-0.947, -1.771e-5
-0.946, -1.760e-5
-0.945, -1.749e-5
-0.944, -1.739e-5
-0.943, -1.728e-5
-0.942, -1.716e-5
-0.941, -1.704e-5
-0.940, -1.693e-5
-0.939, -1.680e-5
-0.938, -1.668e-5
-0.937, -1.655e-5
-0.936, -1.642e-5
-0.935, -1.628e-5
-0.934, -1.615e-5
-0.933, -1.601e-5
-0.932, -1.586e-5
-0.931, -1.572e-5
-0.930, -1.556e-5
-0.929, -1.540e-5
-0.928, -1.524e-5
-0.927, -1.509e-5
-0.926, -1.492e-5
-0.925, -1.475e-5
-0.924, -1.458e-5
-0.923, -1.439e-5
-0.922, -1.421e-5
-0.921, -1.400e-5
-0.920, -1.381e-5
-0.919, -1.362e-5
-0.918, -1.342e-5
-0.917, -1.322e-5
-0.916, -1.301e-5
-0.915, -1.280e-5
-0.914, -1.258e-5
-0.913, -1.236e-5
-0.912, -1.213e-5
-0.911, -1.189e-5
-0.910, -1.164e-5
-0.909, -1.140e-5
-0.908, -1.114e-5
-0.907, -1.089e-5
-0.906, -1.063e-5
-0.905, -1.036e-5
-0.904, -1.009e-5
-0.903, -9.815e-6
-0.902, -9.532e-6
-0.901, -9.255e-6
-0.900, -8.954e-6
-0.899, -8.655e-6
-0.898, -8.355e-6
-0.897, -8.036e-6
-0.896, -7.742e-6
-0.895, -7.439e-6
-0.894, -7.108e-6
-0.893, -6.772e-6
-0.892, -6.423e-6
-0.891, -6.085e-6
-0.890, -5.729e-6
-0.889, -5.389e-6
-0.888, -5.023e-6
-0.887, -4.650e-6
-0.886, -4.289e-6
-0.885, -3.906e-6
-0.884, -3.523e-6
-0.883, -3.134e-6
-0.882, -2.739e-6
-0.881, -2.347e-6
-0.880, -1.943e-6
-0.879, -1.547e-6
-0.878, -1.133e-6
-0.877, -7.185e-7
-0.876, -3.233e-7
-0.875, 1.185e-7
-0.874, 5.360e-7
-0.873, 9.615e-7
-0.872, 1.391e-6
-0.871, 1.825e-6
-0.870, 2.306e-6
-0.869, 2.735e-6
-0.868, 3.175e-6
-0.867, 3.621e-6
-0.866, 4.053e-6
-0.865, 4.512e-6
-0.864, 4.944e-6
-0.863, 5.384e-6
-0.862, 5.847e-6
-0.861, 6.282e-6
-0.860, 6.725e-6
-0.859, 7.182e-6
-0.858, 7.627e-6
-0.857, 8.085e-6
-0.856, 8.530e-6
-0.855, 8.983e-6
-0.854, 9.408e-6
-0.853, 9.846e-6
-0.852, 1.029e-5
-0.851, 1.071e-5
-0.850, 1.114e-5
-0.849, 1.156e-5
-0.848, 1.197e-5
-0.847, 1.238e-5
-0.846, 1.280e-5
-0.845, 1.318e-5
-0.844, 1.353e-5
-0.843, 1.393e-5
-0.842, 1.433e-5
-0.841, 1.470e-5
-0.840, 1.507e-5
-0.839, 1.544e-5
-0.838, 1.579e-5
-0.837, 1.613e-5
-0.836, 1.646e-5
-0.835, 1.680e-5
-0.834, 1.711e-5
-0.833, 1.743e-5
-0.832, 1.773e-5
-0.831, 1.801e-5
-0.830, 1.830e-5
-0.829, 1.856e-5
-0.828, 1.881e-5
-0.827, 1.907e-5
-0.826, 1.929e-5
-0.825, 1.953e-5
-0.824, 1.973e-5
-0.823, 1.995e-5
-0.822, 2.014e-5
-0.821, 2.030e-5
-0.820, 2.049e-5
-0.819, 2.057e-5
-0.818, 2.070e-5
-0.817, 2.085e-5
-0.816, 2.097e-5
-0.815, 2.110e-5
-0.814, 2.120e-5
-0.813, 2.129e-5
-0.812, 2.139e-5
-0.811, 2.146e-5
-0.810, 2.152e-5
-0.809, 2.156e-5
-0.808, 2.161e-5
-0.807, 2.164e-5
-0.806, 2.167e-5
-0.805, 2.168e-5
-0.804, 2.168e-5
-0.803, 2.168e-5
-0.802, 2.165e-5
-0.801, 2.163e-5
-0.800, 2.160e-5
-0.799, 2.154e-5
-0.798, 2.150e-5
-0.797, 2.145e-5
-0.796, 2.138e-5
-0.795, 2.131e-5
-0.794, 2.123e-5
-0.793, 2.112e-5
-0.792, 2.103e-5
-0.791, 2.094e-5
-0.790, 2.085e-5
-0.789, 2.074e-5
-0.788, 2.063e-5
-0.787, 2.051e-5
-0.786, 2.039e-5
-0.785, 2.027e-5
-0.784, 2.014e-5
-0.783, 2.001e-5
-0.782, 1.988e-5
-0.781, 1.974e-5
-0.780, 1.961e-5
-0.779, 1.946e-5
-0.778, 1.931e-5
-0.777, 1.916e-5
-0.776, 1.901e-5
-0.775, 1.887e-5
-0.774, 1.871e-5
-0.773, 1.856e-5
-0.772, 1.841e-5
-0.771, 1.825e-5
-0.770, 1.810e-5
-0.769, 1.794e-5
-0.768, 1.779e-5
-0.767, 1.764e-5
-0.766, 1.749e-5
-0.765, 1.732e-5
-0.764, 1.717e-5
-0.763, 1.702e-5
-0.762, 1.685e-5
-0.761, 1.670e-5
-0.760, 1.655e-5
-0.759, 1.639e-5
-0.758, 1.624e-5
-0.757, 1.608e-5
-0.756, 1.593e-5
-0.755, 1.579e-5
-0.754, 1.563e-5
-0.753, 1.549e-5
-0.752, 1.534e-5
-0.751, 1.519e-5
-0.750, 1.505e-5
-0.749, 1.490e-5
-0.748, 1.477e-5
-0.747, 1.462e-5
-0.746, 1.448e-5
-0.745, 1.435e-5
-0.744, 1.421e-5
-0.743, 1.407e-5
-0.742, 1.393e-5
-0.741, 1.381e-5
-0.740, 1.368e-5
-0.739, 1.355e-5
-0.738, 1.342e-5
-0.737, 1.330e-5
-0.736, 1.318e-5
-0.735, 1.305e-5
-0.734, 1.293e-5
-0.733, 1.281e-5
-0.732, 1.269e-5
-0.731, 1.258e-5
-0.730, 1.246e-5
-0.729, 1.235e-5
-0.728, 1.223e-5
-0.727, 1.212e-5
-0.726, 1.201e-5
-0.725, 1.190e-5
-0.724, 1.180e-5
-0.723, 1.169e-5
-0.722, 1.158e-5
-0.721, 1.149e-5
-0.720, 1.138e-5
-0.719, 1.128e-5
-0.718, 1.119e-5
-0.717, 1.108e-5
-0.716, 1.100e-5
-0.715, 1.090e-5
-0.714, 1.080e-5
-0.713, 1.071e-5
-0.712, 1.062e-5
-0.711, 1.053e-5
-0.710, 1.044e-5
-0.709, 1.035e-5
-0.708, 1.027e-5
-0.707, 1.018e-5
-0.706, 1.009e-5
-0.705, 1.001e-5
-0.704, 9.930e-6
-0.703, 9.850e-6
-0.702, 9.774e-6
-0.701, 9.696e-6
-0.700, 9.611e-6
-0.699, 9.538e-6
-0.698, 9.464e-6
-0.697, 9.384e-6
-0.696, 9.314e-6
-0.695, 9.237e-6
-0.694, 9.162e-6
-0.693, 9.092e-6
-0.692, 9.023e-6
-0.691, 8.955e-6
-0.690, 8.880e-6
-0.689, 8.817e-6
-0.688, 8.751e-6
-0.687, 8.680e-6
-0.686, 8.615e-6
-0.685, 8.551e-6
-0.684, 8.487e-6
-0.683, 8.422e-6
-0.682, 8.357e-6
-0.681, 8.299e-6
-0.680, 8.235e-6
-0.679, 8.172e-6
-0.678, 8.117e-6
-0.677, 8.056e-6
-0.676, 8.001e-6
-0.675, 7.939e-6
-0.674, 7.879e-6
-0.673, 7.827e-6
-0.672, 7.768e-6
-0.671, 7.716e-6
-0.670, 7.655e-6
-0.669, 7.606e-6
-0.668, 7.554e-6
-0.667, 7.499e-6
-0.666, 7.448e-6
-0.665, 7.391e-6
-0.664, 7.343e-6
-0.663, 7.292e-6
-0.662, 7.239e-6
-0.661, 7.188e-6
-0.660, 7.140e-6
-0.659, 7.096e-6
-0.658, 7.048e-6
-0.657, 6.997e-6
-0.656, 6.951e-6
-0.655, 6.901e-6
-0.654, 6.859e-6
-0.653, 6.813e-6
-0.652, 6.764e-6
-0.651, 6.721e-6
-0.650, 6.673e-6
-0.649, 6.634e-6
-0.648, 6.593e-6
-0.647, 6.545e-6
-0.646, 6.507e-6
-0.645, 6.459e-6
-0.644, 6.419e-6
-0.643, 6.379e-6
-0.642, 6.334e-6
-0.641, 6.297e-6
-0.640, 6.253e-6
-0.639, 6.211e-6
-0.638, 6.175e-6
-0.637, 6.136e-6
-0.636, 6.100e-6
-0.635, 6.059e-6
-0.634, 6.023e-6
-0.633, 5.984e-6
-0.632, 5.946e-6
-0.631, 5.916e-6
-0.630, 5.879e-6
-0.629, 5.845e-6
-0.628, 5.810e-6
-0.627, 5.772e-6
-0.626, 5.738e-6
-0.625, 5.700e-6
-0.624, 5.669e-6
-0.623, 5.637e-6
-0.622, 5.601e-6
-0.621, 5.571e-6
-0.620, 5.533e-6
-0.619, 5.500e-6
-0.618, 5.466e-6
-0.617, 5.433e-6
-0.616, 5.407e-6
-0.615, 5.373e-6
-0.614, 5.345e-6
-0.613, 5.314e-6
-0.612, 5.281e-6
-0.611, 5.250e-6
-0.610, 5.217e-6
-0.609, 5.193e-6
-0.608, 5.166e-6
-0.607, 5.136e-6
-0.606, 5.110e-6
-0.605, 5.078e-6
-0.604, 5.051e-6
-0.603, 5.025e-6
-0.602, 4.992e-6
-0.601, 4.969e-6
-0.600, 4.940e-6
-0.599, 4.915e-6
-0.598, 4.892e-6
-0.597, 4.863e-6
-0.596, 4.842e-6
-0.595, 4.813e-6
-0.594, 4.789e-6
-0.593, 4.762e-6
-0.592, 4.735e-6
-0.591, 4.716e-6
-0.590, 4.693e-6
-0.589, 4.671e-6
-0.588, 4.648e-6
-0.587, 4.623e-6
-0.586, 4.604e-6
-0.585, 4.580e-6
-0.584, 4.559e-6
-0.583, 4.538e-6
-0.582, 4.512e-6
-0.581, 4.495e-6
-0.580, 4.471e-6
-0.579, 4.455e-6
-0.578, 4.438e-6
-0.577, 4.417e-6
-0.576, 4.401e-6
-0.575, 4.379e-6
-0.574, 4.364e-6
-0.573, 4.347e-6
-0.572, 4.326e-6
-0.571, 4.313e-6
-0.570, 4.292e-6
-0.569, 4.276e-6
-0.568, 4.262e-6
-0.567, 4.243e-6
-0.566, 4.233e-6
-0.565, 4.217e-6
-0.564, 4.208e-6
-0.563, 4.198e-6
-0.562, 4.183e-6
-0.561, 4.175e-6
-0.560, 4.161e-6
-0.559, 4.151e-6
-0.558, 4.143e-6
-0.557, 4.130e-6
-0.556, 4.125e-6
-0.555, 4.116e-6
-0.554, 4.111e-6
-0.553, 4.106e-6
-0.552, 4.100e-6
-0.551, 4.099e-6
-0.550, 4.093e-6
-0.549, 4.094e-6
-0.548, 4.094e-6
-0.547, 4.091e-6
-0.546, 4.097e-6
-0.545, 4.098e-6
-0.544, 4.105e-6
-0.543, 4.111e-6
-0.542, 4.118e-6
-0.541, 4.129e-6
-0.540, 4.137e-6
-0.539, 4.153e-6
-0.538, 4.169e-6
-0.537, 4.181e-6
-0.536, 4.202e-6
-0.535, 4.219e-6
-0.534, 4.240e-6
-0.533, 4.268e-6
-0.532, 4.297e-6
-0.531, 4.330e-6
-0.530, 4.359e-6
-0.529, 4.395e-6
-0.528, 4.431e-6
-0.527, 4.465e-6
-0.526, 4.510e-6
-0.525, 4.553e-6
-0.524, 4.598e-6
-0.523, 4.649e-6
-0.522, 4.694e-6
-0.521, 4.746e-6
-0.520, 4.801e-6
-0.519, 4.860e-6
-0.518, 4.919e-6
-0.517, 4.976e-6
-0.516, 5.046e-6
-0.515, 5.109e-6
-0.514, 5.174e-6
-0.513, 5.242e-6
-0.512, 5.318e-6
-0.511, 5.395e-6
-0.510, 5.467e-6
-0.509, 5.549e-6
-0.508, 5.629e-6
-0.507, 5.704e-6
-0.506, 5.793e-6
-0.505, 5.877e-6
-0.504, 5.960e-6
-0.503, 6.052e-6
-0.502, 6.142e-6
-0.501, 6.237e-6
-0.500, 6.249e-6
-0.501, 5.972e-6
-0.502, 5.710e-6
-0.503, 5.491e-6
-0.504, 5.303e-6
-0.505, 5.134e-6
-0.506, 4.980e-6
-0.507, 4.839e-6
-0.508, 4.700e-6
-0.509, 4.577e-6
-0.510, 4.452e-6
-0.511, 4.338e-6
-0.512, 4.226e-6
-0.513, 4.123e-6
-0.514, 4.020e-6
-0.515, 3.922e-6
-0.516, 3.831e-6
-0.517, 3.739e-6
-0.518, 3.657e-6
-0.519, 3.579e-6
-0.520, 3.493e-6
-0.521, 3.422e-6
-0.522, 3.348e-6
-0.523, 3.273e-6
-0.524, 3.212e-6
-0.525, 3.145e-6
-0.526, 3.081e-6
-0.527, 3.017e-6
-0.528, 2.959e-6
-0.529, 2.906e-6
-0.530, 2.846e-6
-0.531, 2.795e-6
-0.532, 2.748e-6
-0.533, 2.699e-6
-0.534, 2.656e-6
-0.535, 2.608e-6
-0.536, 2.565e-6
-0.537, 2.525e-6
-0.538, 2.487e-6
-0.539, 2.454e-6
-0.540, 2.415e-6
-0.541, 2.382e-6
-0.542, 2.348e-6
-0.543, 2.310e-6
-0.544, 2.285e-6
-0.545, 2.256e-6
-0.546, 2.231e-6
-0.547, 2.206e-6
-0.548, 2.178e-6
-0.549, 2.157e-6
-0.550, 2.130e-6
-0.551, 2.109e-6
-0.552, 2.086e-6
-0.553, 2.064e-6
-0.554, 2.048e-6
-0.555, 2.027e-6
-0.556, 2.011e-6
-0.557, 1.996e-6
-0.558, 1.976e-6
-0.559, 1.966e-6
-0.560, 1.946e-6
-0.561, 1.933e-6
-0.562, 1.918e-6
-0.563, 1.901e-6
-0.564, 1.889e-6
-0.565, 1.871e-6
-0.566, 1.859e-6
-0.567, 1.846e-6
-0.568, 1.830e-6
-0.569, 1.821e-6
-0.570, 1.806e-6
-0.571, 1.796e-6
-0.572, 1.786e-6
-0.573, 1.773e-6
-0.574, 1.767e-6
-0.575, 1.752e-6
-0.576, 1.744e-6
-0.577, 1.733e-6
-0.578, 1.721e-6
-0.579, 1.715e-6
-0.580, 1.701e-6
-0.581, 1.692e-6
-0.582, 1.683e-6
-0.583, 1.672e-6
-0.584, 1.665e-6
-0.585, 1.651e-6
-0.586, 1.645e-6
-0.587, 1.635e-6
-0.588, 1.623e-6
-0.589, 1.617e-6
-0.590, 1.602e-6
-0.591, 1.597e-6
-0.592, 1.586e-6
-0.593, 1.575e-6
-0.594, 1.569e-6
-0.595, 1.557e-6
-0.596, 1.551e-6
-0.597, 1.542e-6
-0.598, 1.531e-6
-0.599, 1.528e-6
-0.600, 1.514e-6
-0.601, 1.509e-6
-0.602, 1.500e-6
-0.603, 1.491e-6
-0.604, 1.486e-6
-0.605, 1.474e-6
-0.606, 1.468e-6
-0.607, 1.460e-6
-0.608, 1.451e-6
-0.609, 1.445e-6
-0.610, 1.432e-6
-0.611, 1.427e-6
-0.612, 1.419e-6
-0.613, 1.408e-6
-0.614, 1.404e-6
-0.615, 1.392e-6
-0.616, 1.385e-6
-0.617, 1.378e-6
-0.618, 1.367e-6
-0.619, 1.361e-6
-0.620, 1.349e-6
-0.621, 1.343e-6
-0.622, 1.334e-6
-0.623, 1.324e-6
-0.624, 1.320e-6
-0.625, 1.308e-6
-0.626, 1.306e-6
-0.627, 1.295e-6
-0.628, 1.287e-6
-0.629, 1.283e-6
-0.630, 1.272e-6
-0.631, 1.266e-6
-0.632, 1.258e-6
-0.633, 1.249e-6
-0.634, 1.244e-6
-0.635, 1.233e-6
-0.636, 1.228e-6
-0.637, 1.220e-6
-0.638, 1.210e-6
-0.639, 1.205e-6
-0.640, 1.194e-6
-0.641, 1.189e-6
-0.642, 1.180e-6
-0.643, 1.169e-6
-0.644, 1.164e-6
-0.645, 1.151e-6
-0.646, 1.147e-6
-0.647, 1.138e-6
-0.648, 1.126e-6
-0.649, 1.121e-6
-0.650, 1.107e-6
-0.651, 1.101e-6
-0.652, 1.092e-6
-0.653, 1.082e-6
-0.654, 1.076e-6
-0.655, 1.063e-6
-0.656, 1.057e-6
-0.657, 1.048e-6
-0.658, 1.038e-6
-0.659, 1.032e-6
-0.660, 1.019e-6
-0.661, 1.014e-6
-0.662, 1.005e-6
-0.663, 9.939e-7
-0.664, 9.889e-7
-0.665, 9.748e-7
-0.666, 9.684e-7
-0.667, 9.579e-7
-0.668, 9.453e-7
-0.669, 9.386e-7
-0.670, 9.265e-7
-0.671, 9.182e-7
-0.672, 9.074e-7
-0.673, 8.942e-7
-0.674, 8.869e-7
-0.675, 8.713e-7
-0.676, 8.622e-7
-0.677, 8.500e-7
-0.678, 8.389e-7
-0.679, 8.313e-7
-0.680, 8.159e-7
-0.681, 8.088e-7
-0.682, 7.971e-7
-0.683, 7.852e-7
-0.684, 7.766e-7
-0.685, 7.614e-7
-0.686, 7.522e-7
-0.687, 7.398e-7
-0.688, 7.263e-7
-0.689, 7.166e-7
-0.690, 6.993e-7
-0.691, 6.903e-7
-0.692, 6.753e-7
-0.693, 6.602e-7
-0.694, 6.489e-7
-0.695, 6.289e-7
-0.696, 6.165e-7
-0.697, 5.997e-7
-0.698, 5.819e-7
-0.699, 5.694e-7
-0.700, 5.503e-7
-0.701, 5.374e-7
-0.702, 5.227e-7
-0.703, 5.050e-7
-0.704, 4.935e-7
-0.705, 4.741e-7
-0.706, 4.608e-7
-0.707, 4.431e-7
-0.708, 4.237e-7
-0.709, 4.083e-7
-0.710, 3.850e-7
-0.711, 3.666e-7
-0.712, 3.468e-7
-0.713, 3.287e-7
-0.714, 3.117e-7
-0.715, 2.889e-7
-0.716, 2.711e-7
-0.717, 2.466e-7
-0.718, 2.233e-7
-0.719, 2.042e-7
-0.720, 1.760e-7
-0.721, 1.541e-7
-0.722, 1.251e-7
-0.723, 9.711e-8
-0.724, 7.463e-8
-0.725, 4.465e-8
-0.726, 2.110e-8
-0.727, -6.345e-9
-0.728, -3.768e-8
-0.729, -6.338e-8
-0.730, -1.008e-7
-0.731, -1.311e-7
-0.732, -1.616e-7
-0.733, -1.951e-7
-0.734, -2.241e-7
-0.735, -2.621e-7
-0.736, -2.964e-7
-0.737, -3.358e-7
-0.738, -3.784e-7
-0.739, -4.156e-7
-0.740, -4.571e-7
-0.741, -4.943e-7
-0.742, -5.336e-7
-0.743, -5.787e-7
-0.744, -6.239e-7
-0.745, -6.677e-7
-0.746, -7.127e-7
-0.747, -7.608e-7
-0.748, -8.155e-7
-0.749, -8.682e-7
-0.750, -9.246e-7
-0.751, -9.774e-7
-0.752, -1.034e-6
-0.753, -1.098e-6
-0.754, -1.155e-6
-0.755, -1.218e-6
-0.756, -1.282e-6
-0.757, -1.352e-6
-0.758, -1.419e-6
-0.759, -1.486e-6
-0.760, -1.565e-6
-0.761, -1.638e-6
-0.762, -1.712e-6
-0.763, -1.796e-6
-0.764, -1.873e-6
-0.765, -1.957e-6
-0.766, -2.044e-6
-0.767, -2.133e-6
-0.768, -2.232e-6
-0.769, -2.330e-6
-0.770, -2.429e-6
-0.771, -2.529e-6
-0.772, -2.628e-6
-0.773, -2.737e-6
-0.774, -2.844e-6
-0.775, -2.955e-6
-0.776, -3.075e-6
-0.777, -3.191e-6
-0.778, -3.321e-6
-0.779, -3.443e-6
-0.780, -3.576e-6
-0.781, -3.713e-6
-0.782, -3.851e-6
-0.783, -4.000e-6
-0.784, -4.143e-6
-0.785, -4.291e-6
-0.786, -4.448e-6
-0.787, -4.602e-6
-0.788, -4.765e-6
-0.789, -4.933e-6
-0.790, -5.101e-6
-0.791, -5.274e-6
-0.792, -5.456e-6
-0.793, -5.639e-6
-0.794, -5.810e-6
-0.795, -6.001e-6
-0.796, -6.204e-6
-0.797, -6.401e-6
-0.798, -6.610e-6
-0.799, -6.823e-6
-0.800, -7.035e-6
-0.801, -7.258e-6
-0.802, -7.489e-6
-0.803, -7.725e-6
-0.804, -7.954e-6
-0.805, -8.196e-6
-0.806, -8.444e-6
-0.807, -8.697e-6
-0.808, -8.955e-6
-0.809, -9.214e-6
-0.810, -9.476e-6
-0.811, -9.750e-6
-0.812, -1.002e-5
-0.813, -1.030e-5
-0.814, -1.058e-5
-0.815, -1.088e-5
-0.816, -1.117e-5
-0.817, -1.146e-5
-0.818, -1.178e-5
-0.819, -1.206e-5
-0.820, -1.233e-5
-0.821, -1.266e-5
-0.822, -1.298e-5
-0.823, -1.331e-5
-0.824, -1.364e-5
-0.825, -1.397e-5
-0.826, -1.431e-5
-0.827, -1.465e-5
-0.828, -1.500e-5
-0.829, -1.534e-5
-0.830, -1.569e-5
-0.831, -1.605e-5
-0.832, -1.640e-5
-0.833, -1.677e-5
-0.834, -1.714e-5
-0.835, -1.749e-5
-0.836, -1.786e-5
-0.837, -1.822e-5
-0.838, -1.859e-5
-0.839, -1.896e-5
-0.840, -1.933e-5
-0.841, -1.971e-5
-0.842, -2.008e-5
-0.843, -2.046e-5
-0.844, -2.084e-5
-0.845, -2.118e-5
-0.846, -2.155e-5
-0.847, -2.193e-5
-0.848, -2.231e-5
-0.849, -2.268e-5
-0.850, -2.307e-5
-0.851, -2.345e-5
-0.852, -2.381e-5
-0.853, -2.419e-5
-0.854, -2.456e-5
-0.855, -2.492e-5
-0.856, -2.529e-5
-0.857, -2.564e-5
-0.858, -2.601e-5
-0.859, -2.636e-5
-0.860, -2.672e-5
-0.861, -2.708e-5
-0.862, -2.742e-5
-0.863, -2.778e-5
-0.864, -2.812e-5
-0.865, -2.845e-5
-0.866, -2.880e-5
-0.867, -2.912e-5
-0.868, -2.945e-5
-0.869, -2.976e-5
-0.870, -3.008e-5
-0.871, -3.042e-5
-0.872, -3.072e-5
-0.873, -3.102e-5
-0.874, -3.132e-5
-0.875, -3.160e-5
-0.876, -3.189e-5
-0.877, -3.216e-5
-0.878, -3.243e-5
-0.879, -3.270e-5
-0.880, -3.296e-5
-0.881, -3.321e-5
-0.882, -3.346e-5
-0.883, -3.372e-5
-0.884, -3.395e-5
-0.885, -3.419e-5
-0.886, -3.441e-5
-0.887, -3.463e-5
-0.888, -3.485e-5
-0.889, -3.506e-5
-0.890, -3.526e-5
-0.891, -3.546e-5
-0.892, -3.565e-5
-0.893, -3.584e-5
-0.894, -3.602e-5
-0.895, -3.620e-5
-0.896, -3.635e-5
-0.897, -3.649e-5
-0.898, -3.666e-5
-0.899, -3.681e-5
-0.900, -3.694e-5
-0.901, -3.709e-5
-0.902, -3.722e-5
-0.903, -3.735e-5
-0.904, -3.747e-5
-0.905, -3.759e-5
-0.906, -3.770e-5
-0.907, -3.781e-5
-0.908, -3.792e-5
-0.909, -3.801e-5
-0.910, -3.810e-5
-0.911, -3.819e-5
-0.912, -3.826e-5
-0.913, -3.834e-5
-0.914, -3.841e-5
-0.915, -3.847e-5
-0.916, -3.853e-5
-0.917, -3.859e-5
-0.918, -3.863e-5
-0.919, -3.868e-5
-0.920, -3.872e-5
-0.921, -3.876e-5
-0.922, -3.880e-5
-0.923, -3.883e-5
-0.924, -3.885e-5
-0.925, -3.887e-5
-0.926, -3.888e-5
-0.927, -3.889e-5
-0.928, -3.890e-5
-0.929, -3.890e-5
-0.930, -3.890e-5
-0.931, -3.890e-5
-0.932, -3.889e-5
-0.933, -3.889e-5
-0.934, -3.887e-5
-0.935, -3.885e-5
-0.936, -3.884e-5
-0.937, -3.881e-5
-0.938, -3.879e-5
-0.939, -3.876e-5
-0.940, -3.873e-5
-0.941, -3.870e-5
-0.942, -3.866e-5
-0.943, -3.862e-5
-0.944, -3.858e-5
-0.945, -3.854e-5
-0.946, -3.849e-5
-0.947, -3.844e-5
-0.948, -3.839e-5
-0.949, -3.834e-5
-0.950, -3.828e-5
-0.951, -3.823e-5
-0.952, -3.817e-5
-0.953, -3.812e-5
-0.954, -3.806e-5
-0.955, -3.800e-5
-0.956, -3.793e-5
-0.957, -3.787e-5
-0.958, -3.780e-5
-0.959, -3.774e-5
-0.960, -3.767e-5
-0.961, -3.761e-5
-0.962, -3.754e-5
-0.963, -3.747e-5
-0.964, -3.739e-5
-0.965, -3.732e-5
-0.966, -3.725e-5
-0.967, -3.718e-5
-0.968, -3.711e-5
-0.969, -3.703e-5
-0.970, -3.696e-5
-0.971, -3.688e-5
-0.972, -3.681e-5
-0.973, -3.674e-5
-0.974, -3.666e-5
-0.975, -3.659e-5
-0.976, -3.651e-5
-0.977, -3.643e-5
-0.978, -3.635e-5
-0.979, -3.627e-5
-0.980, -3.620e-5
-0.981, -3.612e-5
-0.982, -3.604e-5
-0.983, -3.597e-5
-0.984, -3.589e-5
-0.985, -3.581e-5
-0.986, -3.573e-5
-0.987, -3.566e-5
-0.988, -3.558e-5
-0.989, -3.550e-5
-0.990, -3.542e-5
-0.991, -3.535e-5
-0.992, -3.527e-5
-0.993, -3.519e-5
-0.994, -3.512e-5
-0.995, -3.504e-5
-0.996, -3.496e-5
-0.997, -3.489e-5
-0.998, -3.481e-5
-0.999, -3.473e-5
-1.000, -3.467e-5
-1.001, -3.459e-5
-1.002, -3.452e-5
-1.003, -3.445e-5
-1.004, -3.437e-5
-1.005, -3.430e-5
-1.006, -3.423e-5
-1.007, -3.416e-5
-1.008, -3.409e-5
-1.009, -3.401e-5
-1.010, -3.395e-5
-1.011, -3.388e-5
-1.012, -3.381e-5
-1.013, -3.374e-5
-1.014, -3.367e-5
-1.015, -3.360e-5
-1.016, -3.353e-5
-1.017, -3.347e-5
-1.018, -3.340e-5
-1.019, -3.333e-5
-1.020, -3.327e-5
-1.021, -3.321e-5
-1.022, -3.314e-5
-1.023, -3.308e-5
-1.024, -3.302e-5
-1.025, -3.296e-5
-1.026, -3.289e-5
-1.027, -3.283e-5
-1.028, -3.277e-5
-1.029, -3.272e-5
-1.030, -3.265e-5
-1.031, -3.259e-5
-1.032, -3.253e-5
-1.033, -3.247e-5
-1.034, -3.241e-5
-1.035, -3.235e-5
-1.036, -3.229e-5
-1.037, -3.224e-5
-1.038, -3.218e-5
-1.039, -3.212e-5
-1.040, -3.206e-5
-1.041, -3.201e-5
-1.042, -3.196e-5
-1.043, -3.191e-5
-1.044, -3.185e-5
-1.045, -3.180e-5
-1.046, -3.176e-5
-1.047, -3.170e-5
-1.048, -3.164e-5
-1.049, -3.159e-5
-1.050, -3.154e-5
-1.051, -3.149e-5
-1.052, -3.143e-5
-1.053, -3.138e-5
-1.054, -3.133e-5
-1.055, -3.129e-5
-1.056, -3.124e-5
-1.057, -3.119e-5
-1.058, -3.114e-5
-1.059, -3.109e-5
-1.060, -3.105e-5
-1.061, -3.100e-5
-1.062, -3.095e-5
-1.063, -3.091e-5
-1.064, -3.086e-5
-1.065, -3.082e-5
-1.066, -3.077e-5
-1.067, -3.073e-5
-1.068, -3.068e-5
-1.069, -3.063e-5
-1.070, -3.059e-5
-1.071, -3.055e-5
-1.072, -3.051e-5
-1.073, -3.047e-5
-1.074, -3.043e-5
-1.075, -3.039e-5
-1.076, -3.035e-5
-1.077, -3.031e-5
-1.078, -3.027e-5
-1.079, -3.022e-5
-1.080, -3.018e-5
-1.081, -3.014e-5
-1.082, -3.010e-5
-1.083, -3.006e-5
-1.084, -3.002e-5
-1.085, -2.998e-5
-1.086, -2.994e-5
-1.087, -2.990e-5
-1.088, -2.987e-5
-1.089, -2.983e-5
-1.090, -2.980e-5
-1.091, -2.976e-5
-1.092, -2.972e-5
-1.093, -2.969e-5
-1.094, -2.965e-5
-1.095, -2.962e-5
-1.096, -2.958e-5
-1.097, -2.955e-5
-1.098, -2.951e-5
-1.099, -2.947e-5
-1.100, -2.944e-5
-1.101, -2.940e-5
-1.102, -2.937e-5
-1.103, -2.934e-5
-1.104, -2.930e-5
-1.105, -2.927e-5
-1.106, -2.924e-5
-1.107, -2.921e-5
-1.108, -2.918e-5
-1.109, -2.914e-5
-1.110, -2.911e-5
-1.111, -2.908e-5
-1.112, -2.905e-5
-1.113, -2.902e-5
-1.114, -2.899e-5
-1.115, -2.896e-5
-1.116, -2.893e-5
-1.117, -2.890e-5
-1.118, -2.887e-5
-1.119, -2.884e-5
-1.120, -2.882e-5
-1.121, -2.878e-5
-1.122, -2.876e-5
-1.123, -2.873e-5
-1.124, -2.870e-5
-1.125, -2.867e-5
-1.126, -2.864e-5
-1.127, -2.862e-5
-1.128, -2.859e-5
-1.129, -2.856e-5
-1.130, -2.853e-5
-1.131, -2.850e-5
-1.132, -2.848e-5
-1.133, -2.845e-5
-1.134, -2.842e-5
-1.135, -2.840e-5
-1.136, -2.837e-5
-1.137, -2.836e-5
-1.138, -2.833e-5
-1.139, -2.830e-5
-1.140, -2.828e-5
-1.141, -2.825e-5
-1.142, -2.823e-5
-1.143, -2.820e-5
-1.144, -2.817e-5
-1.145, -2.815e-5
-1.146, -2.812e-5
-1.147, -2.810e-5
-1.148, -2.808e-5
-1.149, -2.805e-5
-1.150, -2.803e-5
-1.151, -2.800e-5
-1.152, -2.798e-5
-1.153, -2.796e-5
-1.154, -2.793e-5
-1.155, -2.792e-5
-1.156, -2.789e-5
-1.157, -2.788e-5
-1.158, -2.785e-5
-1.159, -2.783e-5
-1.160, -2.781e-5
-1.161, -2.778e-5
-1.162, -2.776e-5
-1.163, -2.774e-5
-1.164, -2.772e-5
-1.165, -2.770e-5
-1.166, -2.768e-5
-1.167, -2.766e-5
-1.168, -2.764e-5
-1.169, -2.762e-5
-1.170, -2.760e-5
-1.171, -2.757e-5
-1.172, -2.756e-5
-1.173, -2.754e-5
-1.174, -2.752e-5
-1.175, -2.750e-5
-1.176, -2.748e-5
-1.177, -2.746e-5
-1.178, -2.744e-5
-1.179, -2.742e-5
-1.180, -2.741e-5
-1.181, -2.739e-5
-1.182, -2.737e-5
-1.183, -2.735e-5
-1.184, -2.733e-5
-1.185, -2.731e-5
-1.186, -2.729e-5
-1.187, -2.728e-5
-1.188, -2.726e-5
-1.189, -2.724e-5
-1.190, -2.723e-5
-1.191, -2.720e-5
-1.192, -2.719e-5
-1.193, -2.717e-5
-1.194, -2.715e-5
-1.195, -2.714e-5
-1.196, -2.712e-5
-1.197, -2.711e-5
-1.198, -2.709e-5
-1.199, -2.707e-5
-1.200, -2.704e-5
-1.199, -2.697e-5
-1.198, -2.692e-5
-1.197, -2.687e-5
-1.196, -2.682e-5
-1.195, -2.678e-5
-1.194, -2.674e-5
-1.193, -2.670e-5
-1.192, -2.666e-5
-1.191, -2.663e-5
-1.190, -2.659e-5
-1.189, -2.655e-5
-1.188, -2.652e-5
-1.187, -2.648e-5
-1.186, -2.644e-5
-1.185, -2.641e-5
-1.184, -2.637e-5
-1.183, -2.634e-5
-1.182, -2.630e-5
-1.181, -2.627e-5
-1.180, -2.624e-5
-1.179, -2.621e-5
-1.178, -2.618e-5
-1.177, -2.615e-5
-1.176, -2.612e-5
-1.175, -2.609e-5
-1.174, -2.606e-5
-1.173, -2.603e-5
-1.172, -2.600e-5
-1.171, -2.597e-5
-1.170, -2.594e-5
-1.169, -2.591e-5
-1.168, -2.588e-5
-1.167, -2.585e-5
-1.166, -2.581e-5
-1.165, -2.579e-5
-1.164, -2.576e-5
-1.163, -2.573e-5
-1.162, -2.571e-5
-1.161, -2.568e-5
-1.160, -2.566e-5
-1.159, -2.562e-5
-1.158, -2.560e-5
-1.157, -2.557e-5
-1.156, -2.554e-5
-1.155, -2.552e-5
-1.154, -2.549e-5
-1.153, -2.547e-5
-1.152, -2.544e-5
-1.151, -2.541e-5
-1.150, -2.539e-5
-1.149, -2.536e-5
-1.148, -2.534e-5
-1.147, -2.531e-5
-1.146, -2.528e-5
-1.145, -2.526e-5
-1.144, -2.523e-5
-1.143, -2.521e-5
-1.142, -2.518e-5
-1.141, -2.516e-5
-1.140, -2.514e-5
-1.139, -2.511e-5
-1.138, -2.509e-5
-1.137, -2.506e-5
-1.136, -2.504e-5
-1.135, -2.501e-5
-1.134, -2.499e-5
-1.133, -2.497e-5
-1.132, -2.494e-5
-1.131, -2.492e-5
-1.130, -2.490e-5
-1.129, -2.487e-5
-1.128, -2.485e-5
-1.127, -2.482e-5
-1.126, -2.480e-5
-1.125, -2.478e-5
-1.124, -2.475e-5
-1.123, -2.473e-5
-1.122, -2.471e-5
-1.121, -2.468e-5
-1.120, -2.466e-5
-1.119, -2.463e-5
-1.118, -2.462e-5
-1.117, -2.459e-5
-1.116, -2.457e-5
-1.115, -2.455e-5
-1.114, -2.452e-5
-1.113, -2.450e-5
-1.112, -2.448e-5
-1.111, -2.446e-5
-1.110, -2.444e-5
-1.109, -2.441e-5
-1.108, -2.439e-5
-1.107, -2.437e-5
-1.106, -2.434e-5
-1.105, -2.432e-5
-1.104, -2.429e-5
-1.103, -2.428e-5
-1.102, -2.426e-5
-1.101, -2.423e-5
-1.100, -2.421e-5
-1.099, -2.419e-5
-1.098, -2.417e-5
-1.097, -2.415e-5
-1.096, -2.412e-5
-1.095, -2.410e-5
-1.094, -2.408e-5
-1.093, -2.406e-5
-1.092, -2.403e-5
-1.091, -2.401e-5
-1.090, -2.399e-5
-1.089, -2.397e-5
-1.088, -2.395e-5
-1.087, -2.392e-5
-1.086, -2.390e-5
-1.085, -2.389e-5
-1.084, -2.386e-5
-1.083, -2.384e-5
-1.082, -2.382e-5
-1.081, -2.379e-5
-1.080, -2.377e-5
-1.079, -2.375e-5
-1.078, -2.373e-5
-1.077, -2.371e-5
-1.076, -2.368e-5
-1.075, -2.366e-5
-1.074, -2.364e-5
-1.073, -2.362e-5
-1.072, -2.360e-5
-1.071, -2.357e-5
-1.070, -2.355e-5
-1.069, -2.353e-5
-1.068, -2.351e-5
-1.067, -2.349e-5
-1.066, -2.347e-5
-1.065, -2.345e-5
-1.064, -2.342e-5
-1.063, -2.340e-5
-1.062, -2.337e-5
-1.061, -2.335e-5
-1.060, -2.333e-5
-1.059, -2.330e-5
-1.058, -2.328e-5
-1.057, -2.326e-5
-1.056, -2.324e-5
-1.055, -2.322e-5
-1.054, -2.319e-5
-1.053, -2.317e-5
-1.052, -2.315e-5
-1.051, -2.313e-5
-1.050, -2.311e-5
-1.049, -2.308e-5
-1.048, -2.306e-5
-1.047, -2.304e-5
-1.046, -2.301e-5
-1.045, -2.299e-5
-1.044, -2.296e-5
-1.043, -2.294e-5
-1.042, -2.291e-5
-1.041, -2.289e-5
-1.040, -2.287e-5
-1.039, -2.284e-5
-1.038, -2.282e-5
-1.037, -2.279e-5
-1.036, -2.277e-5
-1.035, -2.275e-5
-1.034, -2.272e-5
-1.033, -2.270e-5
-1.032, -2.267e-5
-1.031, -2.264e-5
-1.030, -2.262e-5
-1.029, -2.259e-5
-1.028, -2.257e-5
-1.027, -2.254e-5
-1.026, -2.251e-5
-1.025, -2.249e-5
-1.024, -2.246e-5
-1.023, -2.243e-5
-1.022, -2.240e-5
-1.021, -2.237e-5
-1.020, -2.235e-5
-1.019, -2.232e-5
-1.018, -2.229e-5
-1.017, -2.226e-5
-1.016, -2.223e-5
-1.015, -2.220e-5
-1.014, -2.217e-5
-1.013, -2.214e-5
-1.012, -2.211e-5
-1.011, -2.208e-5
-1.010, -2.205e-5
-1.009, -2.202e-5
-1.008, -2.199e-5
-1.007, -2.195e-5
-1.006, -2.192e-5
-1.005, -2.189e-5
-1.004, -2.185e-5
-1.003, -2.183e-5
-1.002, -2.179e-5
-1.001, -2.175e-5
-1.000, -2.172e-5
-0.999, -2.168e-5
-0.998, -2.165e-5
-0.997, -2.161e-5
-0.996, -2.157e-5
-0.995, -2.154e-5
-0.994, -2.150e-5
-0.993, -2.146e-5
-0.992, -2.142e-5
-0.991, -2.138e-5
-0.990, -2.134e-5
-0.989, -2.130e-5
-0.988, -2.126e-5
-0.987, -2.121e-5
-0.986, -2.117e-5
-0.985, -2.112e-5
-0.984, -2.108e-5
-0.983, -2.104e-5
-0.982, -2.098e-5
-0.981, -2.094e-5
-0.980, -2.089e-5
-0.979, -2.084e-5
-0.978, -2.079e-5
-0.977, -2.073e-5
-0.976, -2.068e-5
-0.975, -2.063e-5
-0.974, -2.057e-5
-0.973, -2.052e-5
-0.972, -2.045e-5
-0.971, -2.039e-5
-0.970, -2.034e-5
-0.969, -2.027e-5
-0.968, -2.021e-5
-0.967, -2.015e-5
-0.966, -2.009e-5
-0.965, -2.002e-5
-0.964, -1.995e-5
-0.963, -1.988e-5
-0.962, -1.981e-5
-0.961, -1.974e-5
-0.960, -1.966e-5
-0.959, -1.959e-5
-0.958, -1.951e-5
-0.957, -1.943e-5
-0.956, -1.935e-5
-0.955, -1.926e-5
-0.954, -1.918e-5
-0.953, -1.909e-5
-0.952, -1.900e-5
-0.951, -1.891e-5
-0.950, -1.882e-5
-0.949, -1.872e-5
-0.948, -1.863e-5
-0.947, -1.853e-5
-0.946, -1.843e-5
-0.945, -1.833e-5
-0.944, -1.821e-5
-0.943, -1.811e-5
-0.942, -1.799e-5
-0.941, -1.788e-5
-0.940, -1.776e-5
-0.939, -1.764e-5
-0.938, -1.752e-5
-0.937, -1.740e-5
-0.936, -1.727e-5
-0.935, -1.714e-5
-0.934, -1.700e-5
-0.933, -1.686e-5
-0.932, -1.672e-5
-0.931, -1.658e-5
-0.930, -1.643e-5
-0.929, -1.628e-5
-0.928, -1.612e-5
-0.927, -1.597e-5
-0.926, -1.580e-5
-0.925, -1.564e-5
-0.924, -1.547e-5
-0.923, -1.529e-5
-0.922, -1.512e-5
-0.921, -1.492e-5
-0.920, -1.474e-5
-0.919, -1.455e-5
-0.918, -1.436e-5
-0.917, -1.417e-5
-0.916, -1.396e-5
-0.915, -1.376e-5
-0.914, -1.355e-5
-0.913, -1.333e-5
-0.912, -1.312e-5
-0.911, -1.289e-5
-0.910, -1.265e-5
-0.909, -1.242e-5
-0.908, -1.218e-5
-0.907, -1.193e-5
-0.906, -1.168e-5
-0.905, -1.143e-5
-0.904, -1.117e-5
-0.903, -1.091e-5
-0.902, -1.065e-5
-0.901, -1.037e-5
-0.900, -1.009e-5
-0.899, -9.806e-6
-0.898, -9.518e-6
-0.897, -9.230e-6
-0.896, -8.945e-6
-0.895, -8.657e-6
-0.894, -8.343e-6
-0.893, -8.022e-6
-0.892, -7.710e-6
-0.891, -7.375e-6
-0.890, -7.051e-6
-0.889, -6.724e-6
-0.888, -6.371e-6
-0.887, -6.039e-6
-0.886, -5.686e-6
-0.885, -5.342e-6
-0.884, -4.983e-6
-0.883, -4.605e-6
-0.882, -4.249e-6
-0.881, -3.864e-6
-0.880, -3.491e-6
-0.879, -3.115e-6
-0.878, -2.719e-6
-0.877, -2.348e-6
-0.876, -1.954e-6
-0.875, -1.560e-6
-0.874, -1.174e-6
-0.873, -7.662e-7
-0.872, -3.708e-7
-0.871, 4.339e-8
-0.870, 4.822e-7
-0.869, 8.814e-7
-0.868, 1.309e-6
-0.867, 1.705e-6
-0.866, 2.118e-6
-0.865, 2.534e-6
-0.864, 2.950e-6
-0.863, 3.375e-6
-0.862, 3.785e-6
-0.861, 4.206e-6
-0.860, 4.619e-6
-0.859, 5.039e-6
-0.858, 5.464e-6
-0.857, 5.863e-6
-0.856, 6.286e-6
-0.855, 6.700e-6
-0.854, 7.096e-6
-0.853, 7.510e-6
-0.852, 7.911e-6
-0.851, 8.314e-6
-0.850, 8.708e-6
-0.849, 9.105e-6
-0.848, 9.497e-6
-0.847, 9.851e-6
-0.846, 1.024e-5
-0.845, 1.059e-5
-0.844, 1.093e-5
-0.843, 1.130e-5
-0.842, 1.165e-5
-0.841, 1.201e-5
-0.840, 1.235e-5
-0.839, 1.269e-5
-0.838, 1.302e-5
-0.837, 1.333e-5
-0.836, 1.365e-5
-0.835, 1.395e-5
-0.834, 1.423e-5
-0.833, 1.453e-5
-0.832, 1.480e-5
-0.831, 1.507e-5
-0.830, 1.534e-5
-0.829, 1.558e-5
-0.828, 1.582e-5
-0.827, 1.604e-5
-0.826, 1.627e-5
-0.825, 1.647e-5
-0.824, 1.667e-5
-0.823, 1.686e-5
-0.822, 1.702e-5
-0.821, 1.719e-5
-0.820, 1.735e-5
-0.819, 1.742e-5
-0.818, 1.754e-5
-0.817, 1.767e-5
-0.816, 1.781e-5
-0.815, 1.792e-5
-0.814, 1.802e-5
-0.813, 1.811e-5
-0.812, 1.818e-5
-0.811, 1.826e-5
-0.810, 1.831e-5
-0.809, 1.836e-5
-0.808, 1.840e-5
-0.807, 1.843e-5
-0.806, 1.846e-5
-0.805, 1.847e-5
-0.804, 1.848e-5
-0.803, 1.848e-5
-0.802, 1.845e-5
-0.801, 1.844e-5
-0.800, 1.841e-5
-0.799, 1.837e-5
-0.798, 1.833e-5
-0.797, 1.828e-5
-0.796, 1.822e-5
-0.795, 1.816e-5
-0.794, 1.808e-5
-0.793, 1.799e-5
-0.792, 1.791e-5
-0.791, 1.784e-5
-0.790, 1.775e-5
-0.789, 1.765e-5
-0.788, 1.756e-5
-0.787, 1.746e-5
-0.786, 1.735e-5
-0.785, 1.725e-5
-0.784, 1.713e-5
-0.783, 1.701e-5
-0.782, 1.689e-5
-0.781, 1.678e-5
-0.780, 1.665e-5
-0.779, 1.652e-5
-0.778, 1.639e-5
-0.777, 1.626e-5
-0.776, 1.612e-5
-0.775, 1.599e-5
-0.774, 1.586e-5
-0.773, 1.572e-5
-0.772, 1.559e-5
-0.771, 1.545e-5
-0.770, 1.531e-5
-0.769, 1.517e-5
-0.768, 1.504e-5
-0.767, 1.491e-5
-0.766, 1.477e-5
-0.765, 1.463e-5
-0.764, 1.449e-5
-0.763, 1.435e-5
-0.762, 1.421e-5
-0.761, 1.407e-5
-0.760, 1.394e-5
-0.759, 1.380e-5
-0.758, 1.366e-5
-0.757, 1.353e-5
-0.756, 1.340e-5
-0.755, 1.327e-5
-0.754, 1.313e-5
-0.753, 1.300e-5
-0.752, 1.287e-5
-0.751, 1.274e-5
-0.750, 1.262e-5
-0.749, 1.249e-5
-0.748, 1.236e-5
-0.747, 1.223e-5
-0.746, 1.211e-5
-0.745, 1.199e-5
-0.744, 1.187e-5
-0.743, 1.175e-5
-0.742, 1.163e-5
-0.741, 1.151e-5
-0.740, 1.140e-5
-0.739, 1.129e-5
-0.738, 1.118e-5
-0.737, 1.106e-5
-0.736, 1.096e-5
-0.735, 1.084e-5
-0.734, 1.074e-5
-0.733, 1.063e-5
-0.732, 1.053e-5
-0.731, 1.043e-5
-0.730, 1.032e-5
-0.729, 1.023e-5
-0.728, 1.012e-5
-0.727, 1.003e-5
-0.726, 9.932e-6
-0.725, 9.840e-6
-0.724, 9.754e-6
-0.723, 9.656e-6
-0.722, 9.567e-6
-0.721, 9.479e-6
-0.720, 9.386e-6
-0.719, 9.301e-6
-0.718, 9.211e-6
-0.717, 9.126e-6
-0.716, 9.046e-6
-0.715, 8.960e-6
-0.714, 8.879e-6
-0.713, 8.795e-6
-0.712, 8.718e-6
-0.711, 8.634e-6
-0.710, 8.560e-6
-0.709, 8.485e-6
-0.708, 8.406e-6
-0.707, 8.334e-6
-0.706, 8.259e-6
-0.705, 8.184e-6
-0.704, 8.117e-6
-0.703, 8.045e-6
-0.702, 7.978e-6
-0.701, 7.902e-6
-0.700, 7.837e-6
-0.699, 7.773e-6
-0.698, 7.699e-6
-0.697, 7.636e-6
-0.696, 7.573e-6
-0.695, 7.508e-6
-0.694, 7.447e-6
-0.693, 7.380e-6
-0.692, 7.324e-6
-0.691, 7.260e-6
-0.690, 7.196e-6
-0.689, 7.143e-6
-0.688, 7.084e-6
-0.687, 7.029e-6
-0.686, 6.970e-6
-0.685, 6.909e-6
-0.684, 6.859e-6
-0.683, 6.800e-6
-0.682, 6.749e-6
-0.681, 6.688e-6
-0.680, 6.639e-6
-0.679, 6.591e-6
-0.678, 6.535e-6
-0.677, 6.487e-6
-0.676, 6.431e-6
-0.675, 6.381e-6
-0.674, 6.335e-6
-0.673, 6.282e-6
-0.672, 6.234e-6
-0.671, 6.183e-6
-0.670, 6.140e-6
-0.669, 6.095e-6
-0.668, 6.045e-6
-0.667, 6.002e-6
-0.666, 5.954e-6
-0.665, 5.913e-6
-0.664, 5.873e-6
-0.663, 5.826e-6
-0.662, 5.785e-6
-0.661, 5.738e-6
-0.660, 5.695e-6
-0.659, 5.658e-6
-0.658, 5.614e-6
-0.657, 5.577e-6
-0.656, 5.533e-6
-0.655, 5.487e-6
-0.654, 5.450e-6
-0.653, 5.410e-6
-0.652, 5.376e-6
-0.651, 5.333e-6
-0.650, 5.294e-6
-0.649, 5.256e-6
-0.648, 5.214e-6
-0.647, 5.184e-6
-0.646, 5.148e-6
-0.645, 5.110e-6
-0.644, 5.077e-6
-0.643, 5.036e-6
-0.642, 5.003e-6
-0.641, 4.965e-6
-0.640, 4.932e-6
-0.639, 4.902e-6
-0.638, 4.864e-6
-0.637, 4.834e-6
-0.636, 4.798e-6
-0.635, 4.763e-6
-0.634, 4.732e-6
-0.633, 4.699e-6
-0.632, 4.674e-6
-0.631, 4.640e-6
-0.630, 4.608e-6
-0.629, 4.581e-6
-0.628, 4.545e-6
-0.627, 4.518e-6
-0.626, 4.484e-6
-0.625, 4.457e-6
-0.624, 4.432e-6
-0.623, 4.401e-6
-0.622, 4.376e-6
-0.621, 4.344e-6
-0.620, 4.316e-6
-0.619, 4.290e-6
-0.618, 4.256e-6
-0.617, 4.235e-6
-0.616, 4.208e-6
-0.615, 4.184e-6
-0.614, 4.161e-6
-0.613, 4.131e-6
-0.612, 4.109e-6
-0.611, 4.082e-6
-0.610, 4.056e-6
-0.609, 4.032e-6
-0.608, 4.002e-6
-0.607, 3.981e-6
-0.606, 3.957e-6
-0.605, 3.934e-6
-0.604, 3.914e-6
-0.603, 3.887e-6
-0.602, 3.869e-6
-0.601, 3.843e-6
-0.600, 3.820e-6
-0.599, 3.799e-6
-0.598, 3.773e-6
-0.597, 3.756e-6
-0.596, 3.733e-6
-0.595, 3.715e-6
-0.594, 3.698e-6
-0.593, 3.676e-6
-0.592, 3.660e-6
-0.591, 3.639e-6
-0.590, 3.621e-6
-0.589, 3.604e-6
-0.588, 3.581e-6
-0.587, 3.567e-6
-0.586, 3.545e-6
-0.585, 3.529e-6
-0.584, 3.515e-6
-0.583, 3.493e-6
-0.582, 3.480e-6
-0.581, 3.462e-6
-0.580, 3.449e-6
-0.579, 3.436e-6
-0.578, 3.420e-6
-0.577, 3.409e-6
-0.576, 3.394e-6
-0.575, 3.382e-6
-0.574, 3.371e-6
-0.573, 3.355e-6
-0.572, 3.347e-6
-0.571, 3.333e-6
-0.570, 3.322e-6
-0.569, 3.313e-6
-0.568, 3.298e-6
-0.567, 3.292e-6
-0.566, 3.281e-6
-0.565, 3.274e-6
-0.564, 3.269e-6
-0.563, 3.261e-6
-0.562, 3.259e-6
-0.561, 3.252e-6
-0.560, 3.249e-6
-0.559, 3.249e-6
-0.558, 3.243e-6
-0.557, 3.245e-6
-0.556, 3.243e-6
-0.555, 3.244e-6
-0.554, 3.249e-6
-0.553, 3.248e-6
-0.552, 3.258e-6
-0.551, 3.260e-6
-0.550, 3.267e-6
-0.549, 3.278e-6
-0.548, 3.286e-6
-0.547, 3.302e-6
-0.546, 3.314e-6
-0.545, 3.333e-6
-0.544, 3.353e-6
-0.543, 3.369e-6
-0.542, 3.393e-6
-0.541, 3.414e-6
-0.540, 3.438e-6
-0.539, 3.467e-6
-0.538, 3.490e-6
-0.537, 3.524e-6
-0.536, 3.558e-6
-0.535, 3.594e-6
-0.534, 3.634e-6
-0.533, 3.670e-6
-0.532, 3.713e-6
-0.531, 3.750e-6
-0.530, 3.796e-6
-0.529, 3.850e-6
-0.528, 3.896e-6
-0.527, 3.949e-6
-0.526, 4.003e-6
-0.525, 4.060e-6
-0.524, 4.120e-6
-0.523, 4.178e-6
-0.522, 4.235e-6
-0.521, 4.298e-6
-0.520, 4.365e-6
-0.519, 4.434e-6
-0.518, 4.495e-6
-0.517, 4.570e-6
-0.516, 4.643e-6
-0.515, 4.714e-6
-0.514, 4.793e-6
-0.513, 4.872e-6
-0.512, 4.954e-6
-0.511, 5.039e-6
-0.510, 5.125e-6
-0.509, 5.208e-6
-0.508, 5.295e-6
-0.507, 5.390e-6
-0.506, 5.479e-6
-0.505, 5.575e-6
-0.504, 5.672e-6
-0.503, 5.768e-6
-0.502, 5.872e-6
-0.501, 5.970e-6
-0.500, 5.987e-6
-0.501, 5.707e-6
-0.502, 5.432e-6
-0.503, 5.210e-6
-0.504, 5.017e-6
-0.505, 4.843e-6
-0.506, 4.687e-6
-0.507, 4.537e-6
-0.508, 4.402e-6
-0.509, 4.268e-6
-0.510, 4.147e-6
-0.511, 4.028e-6
-0.512, 3.907e-6
-0.513, 3.797e-6
-0.514, 3.693e-6
-0.515, 3.596e-6
-0.516, 3.498e-6
-0.517, 3.405e-6
-0.518, 3.318e-6
-0.519, 3.233e-6
-0.520, 3.152e-6
-0.521, 3.069e-6
-0.522, 2.988e-6
-0.523, 2.917e-6
-0.524, 2.840e-6
-0.525, 2.769e-6
-0.526, 2.708e-6
-0.527, 2.638e-6
-0.528, 2.577e-6
-0.529, 2.514e-6
-0.530, 2.457e-6
-0.531, 2.402e-6
-0.532, 2.340e-6
-0.533, 2.289e-6
-0.534, 2.240e-6
-0.535, 2.191e-6
-0.536, 2.144e-6
-0.537, 2.094e-6
-0.538, 2.054e-6
-0.539, 2.011e-6
-0.540, 1.971e-6
-0.541, 1.934e-6
-0.542, 1.891e-6
-0.543, 1.856e-6
-0.544, 1.813e-6
-0.545, 1.782e-6
-0.546, 1.753e-6
-0.547, 1.718e-6
-0.548, 1.692e-6
-0.549, 1.658e-6
-0.550, 1.631e-6
-0.551, 1.604e-6
-0.552, 1.574e-6
-0.553, 1.552e-6
-0.554, 1.526e-6
-0.555, 1.505e-6
-0.556, 1.486e-6
-0.557, 1.461e-6
-0.558, 1.446e-6
-0.559, 1.425e-6
-0.560, 1.406e-6
-0.561, 1.388e-6
-0.562, 1.367e-6
-0.563, 1.354e-6
-0.564, 1.335e-6
-0.565, 1.321e-6
-0.566, 1.308e-6
-0.567, 1.293e-6
-0.568, 1.284e-6
-0.569, 1.269e-6
-0.570, 1.258e-6
-0.571, 1.247e-6
-0.572, 1.234e-6
-0.573, 1.227e-6
-0.574, 1.212e-6
-0.575, 1.203e-6
-0.576, 1.194e-6
-0.577, 1.180e-6
-0.578, 1.175e-6
-0.579, 1.162e-6
-0.580, 1.154e-6
-0.581, 1.147e-6
-0.582, 1.133e-6
-0.583, 1.129e-6
-0.584, 1.115e-6
-0.585, 1.110e-6
-0.586, 1.101e-6
-0.587, 1.089e-6
-0.588, 1.086e-6
-0.589, 1.074e-6
-0.590, 1.069e-6
-0.591, 1.061e-6
-0.592, 1.050e-6
-0.593, 1.049e-6
-0.594, 1.038e-6
-0.595, 1.031e-6
-0.596, 1.027e-6
-0.597, 1.016e-6
-0.598, 1.014e-6
-0.599, 1.005e-6
-0.600, 9.983e-7
-0.601, 9.928e-7
-0.602, 9.831e-7
-0.603, 9.798e-7
-0.604, 9.702e-7
-0.605, 9.655e-7
-0.606, 9.603e-7
-0.607, 9.504e-7
-0.608, 9.475e-7
-0.609, 9.384e-7
-0.610, 9.325e-7
-0.611, 9.287e-7
-0.612, 9.181e-7
-0.613, 9.158e-7
-0.614, 9.058e-7
-0.615, 9.001e-7
-0.616, 8.953e-7
-0.617, 8.855e-7
-0.618, 8.830e-7
-0.619, 8.724e-7
-0.620, 8.679e-7
-0.621, 8.628e-7
-0.622, 8.531e-7
-0.623, 8.501e-7
-0.624, 8.403e-7
-0.625, 8.357e-7
-0.626, 8.300e-7
-0.627, 8.222e-7
-0.628, 8.194e-7
-0.629, 8.114e-7
-0.630, 8.070e-7
-0.631, 8.009e-7
-0.632, 7.936e-7
-0.633, 7.908e-7
-0.634, 7.830e-7
-0.635, 7.779e-7
-0.636, 7.732e-7
-0.637, 7.638e-7
-0.638, 7.618e-7
-0.639, 7.528e-7
-0.640, 7.489e-7
-0.641, 7.440e-7
-0.642, 7.334e-7
-0.643, 7.311e-7
-0.644, 7.216e-7
-0.645, 7.169e-7
-0.646, 7.104e-7
-0.647, 7.023e-7
-0.648, 6.996e-7
-0.649, 6.883e-7
-0.650, 6.834e-7
-0.651, 6.779e-7
-0.652, 6.675e-7
-0.653, 6.648e-7
-0.654, 6.541e-7
-0.655, 6.488e-7
-0.656, 6.430e-7
-0.657, 6.328e-7
-0.658, 6.286e-7
-0.659, 6.156e-7
-0.660, 6.102e-7
-0.661, 6.044e-7
-0.662, 5.930e-7
-0.663, 5.892e-7
-0.664, 5.758e-7
-0.665, 5.699e-7
-0.666, 5.629e-7
-0.667, 5.519e-7
-0.668, 5.471e-7
-0.669, 5.364e-7
-0.670, 5.309e-7
-0.671, 5.227e-7
-0.672, 5.137e-7
-0.673, 5.096e-7
-0.674, 4.980e-7
-0.675, 4.924e-7
-0.676, 4.850e-7
-0.677, 4.734e-7
-0.678, 4.690e-7
-0.679, 4.576e-7
-0.680, 4.489e-7
-0.681, 4.403e-7
-0.682, 4.279e-7
-0.683, 4.220e-7
-0.684, 4.090e-7
-0.685, 4.003e-7
-0.686, 3.880e-7
-0.687, 3.751e-7
-0.688, 3.683e-7
-0.689, 3.539e-7
-0.690, 3.445e-7
-0.691, 3.351e-7
-0.692, 3.245e-7
-0.693, 3.156e-7
-0.694, 3.005e-7
-0.695, 2.913e-7
-0.696, 2.792e-7
-0.697, 2.641e-7
-0.698, 2.556e-7
-0.699, 2.382e-7
-0.700, 2.272e-7
-0.701, 2.136e-7
-0.702, 1.964e-7
-0.703, 1.855e-7
-0.704, 1.656e-7
-0.705, 1.520e-7
-0.706, 1.347e-7
-0.707, 1.149e-7
-0.708, 1.023e-7
-0.709, 8.261e-8
-0.710, 6.908e-8
-0.711, 5.107e-8
-0.712, 3.034e-8
-0.713, 1.779e-8
-0.714, -3.036e-9
-0.715, -2.133e-8
-0.716, -4.051e-8
-0.717, -6.639e-8
-0.718, -8.391e-8
-0.719, -1.106e-7
-0.720, -1.315e-7
-0.721, -1.518e-7
-0.722, -1.760e-7
-0.723, -1.951e-7
-0.724, -2.221e-7
-0.725, -2.439e-7
-0.726, -2.701e-7
-0.727, -2.981e-7
-0.728, -3.242e-7
-0.729, -3.578e-7
-0.730, -3.880e-7
-0.731, -4.171e-7
-0.732, -4.480e-7
-0.733, -4.740e-7
-0.734, -5.082e-7
-0.735, -5.384e-7
-0.736, -5.748e-7
-0.737, -6.146e-7
-0.738, -6.443e-7
-0.739, -6.826e-7
-0.740, -7.197e-7
-0.741, -7.574e-7
-0.742, -8.001e-7
-0.743, -8.401e-7
-0.744, -8.891e-7
-0.745, -9.308e-7
-0.746, -9.760e-7
-0.747, -1.028e-6
-0.748, -1.077e-6
-0.749, -1.128e-6
-0.750, -1.178e-6
-0.751, -1.230e-6
-0.752, -1.289e-6
-0.753, -1.346e-6
-0.754, -1.408e-6
-0.755, -1.463e-6
-0.756, -1.528e-6
-0.757, -1.598e-6
-0.758, -1.658e-6
-0.759, -1.729e-6
-0.760, -1.801e-6
-0.761, -1.873e-6
-0.762, -1.947e-6
-0.763, -2.024e-6
-0.764, -2.109e-6
-0.765, -2.189e-6
-0.766, -2.275e-6
-0.767, -2.367e-6
-0.768, -2.459e-6
-0.769, -2.559e-6
-0.770, -2.650e-6
-0.771, -2.747e-6
-0.772, -2.851e-6
-0.773, -2.956e-6
-0.774, -3.068e-6
-0.775, -3.177e-6
-0.776, -3.295e-6
-0.777, -3.412e-6
-0.778, -3.533e-6
-0.779, -3.654e-6
-0.780, -3.787e-6
-0.781, -3.925e-6
-0.782, -4.065e-6
-0.783, -4.205e-6
-0.784, -4.344e-6
-0.785, -4.495e-6
-0.786, -4.648e-6
-0.787, -4.802e-6
-0.788, -4.960e-6
-0.789, -5.130e-6
-0.790, -5.297e-6
-0.791, -5.468e-6
-0.792, -5.650e-6
-0.793, -5.825e-6
-0.794, -5.999e-6
-0.795, -6.192e-6
-0.796, -6.391e-6
-0.797, -6.589e-6
-0.798, -6.794e-6
-0.799, -7.011e-6
-0.800, -7.223e-6
-0.801, -7.442e-6
-0.802, -7.668e-6
-0.803, -7.904e-6
-0.804, -8.136e-6
-0.805, -8.382e-6
-0.806, -8.625e-6
-0.807, -8.876e-6
-0.808, -9.131e-6
-0.809, -9.390e-6
-0.810, -9.657e-6
-0.811, -9.923e-6
-0.812, -1.020e-5
-0.813, -1.047e-5
-0.814, -1.076e-5
-0.815, -1.106e-5
-0.816, -1.134e-5
-0.817, -1.164e-5
-0.818, -1.195e-5
-0.819, -1.224e-5
-0.820, -1.251e-5
-0.821, -1.283e-5
-0.822, -1.316e-5
-0.823, -1.349e-5
-0.824, -1.381e-5
-0.825, -1.415e-5
-0.826, -1.448e-5
-0.827, -1.483e-5
-0.828, -1.517e-5
-0.829, -1.552e-5
-0.830, -1.588e-5
-0.831, -1.622e-5
-0.832, -1.659e-5
-0.833, -1.695e-5
-0.834, -1.732e-5
-0.835, -1.769e-5
-0.836, -1.804e-5
-0.837, -1.842e-5
-0.838, -1.880e-5
-0.839, -1.916e-5
-0.840, -1.955e-5
-0.841, -1.992e-5
-0.842, -2.031e-5
-0.843, -2.069e-5
-0.844, -2.107e-5
-0.845, -2.142e-5
-0.846, -2.179e-5
-0.847, -2.217e-5
-0.848, -2.256e-5
-0.849, -2.294e-5
-0.850, -2.333e-5
-0.851, -2.369e-5
-0.852, -2.407e-5
-0.853, -2.446e-5
-0.854, -2.484e-5
-0.855, -2.522e-5
-0.856, -2.558e-5
-0.857, -2.596e-5
-0.858, -2.634e-5
-0.859, -2.669e-5
-0.860, -2.707e-5
-0.861, -2.742e-5
-0.862, -2.778e-5
-0.863, -2.814e-5
-0.864, -2.849e-5
-0.865, -2.884e-5
-0.866, -2.918e-5
-0.867, -2.952e-5
-0.868, -2.985e-5
-0.869, -3.019e-5
-0.870, -3.053e-5
-0.871, -3.087e-5
-0.872, -3.120e-5
-0.873, -3.151e-5
-0.874, -3.182e-5
-0.875, -3.212e-5
-0.876, -3.240e-5
-0.877, -3.269e-5
-0.878, -3.298e-5
-0.879, -3.327e-5
-0.880, -3.355e-5
-0.881, -3.381e-5
-0.882, -3.409e-5
-0.883, -3.435e-5
-0.884, -3.461e-5
-0.885, -3.486e-5
-0.886, -3.510e-5
-0.887, -3.534e-5
-0.888, -3.558e-5
-0.889, -3.580e-5
-0.890, -3.601e-5
-0.891, -3.622e-5
-0.892, -3.643e-5
-0.893, -3.664e-5
-0.894, -3.684e-5
-0.895, -3.703e-5
-0.896, -3.719e-5
-0.897, -3.737e-5
-0.898, -3.755e-5
-0.899, -3.772e-5
-0.900, -3.789e-5
-0.901, -3.804e-5
-0.902, -3.819e-5
-0.903, -3.833e-5
-0.904, -3.848e-5
-0.905, -3.861e-5
-0.906, -3.873e-5
-0.907, -3.886e-5
-0.908, -3.898e-5
-0.909, -3.910e-5
-0.910, -3.921e-5
-0.911, -3.930e-5
-0.912, -3.940e-5
-0.913, -3.949e-5
-0.914, -3.958e-5
-0.915, -3.966e-5
-0.916, -3.973e-5
-0.917, -3.980e-5
-0.918, -3.986e-5
-0.919, -3.992e-5
-0.920, -3.998e-5
-0.921, -4.004e-5
-0.922, -4.010e-5
-0.923, -4.014e-5
-0.924, -4.018e-5
-0.925, -4.021e-5
-0.926, -4.024e-5
-0.927, -4.027e-5
-0.928, -4.028e-5
-0.929, -4.030e-5
-0.930, -4.032e-5
-0.931, -4.032e-5
-0.932, -4.033e-5
-0.933, -4.033e-5
-0.934, -4.033e-5
-0.935, -4.033e-5
-0.936, -4.032e-5
-0.937, -4.031e-5
-0.938, -4.029e-5
-0.939, -4.028e-5
-0.940, -4.026e-5
-0.941, -4.023e-5
-0.942, -4.021e-5
-0.943, -4.017e-5
-0.944, -4.014e-5
-0.945, -4.011e-5
-0.946, -4.007e-5
-0.947, -4.003e-5
-0.948, -3.998e-5
-0.949, -3.994e-5
-0.950, -3.989e-5
-0.951, -3.984e-5
-0.952, -3.980e-5
-0.953, -3.974e-5
-0.954, -3.969e-5
-0.955, -3.964e-5
-0.956, -3.958e-5
-0.957, -3.953e-5
-0.958, -3.946e-5
-0.959, -3.941e-5
-0.960, -3.934e-5
-0.961, -3.928e-5
-0.962, -3.922e-5
-0.963, -3.915e-5
-0.964, -3.908e-5
-0.965, -3.902e-5
-0.966, -3.894e-5
-0.967, -3.888e-5
-0.968, -3.880e-5
-0.969, -3.873e-5
-0.970, -3.866e-5
-0.971, -3.859e-5
-0.972, -3.851e-5
-0.973, -3.844e-5
-0.974, -3.838e-5
-0.975, -3.830e-5
-0.976, -3.822e-5
-0.977, -3.815e-5
-0.978, -3.807e-5
-0.979, -3.799e-5
-0.980, -3.791e-5
-0.981, -3.784e-5
-0.982, -3.776e-5
-0.983, -3.768e-5
-0.984, -3.760e-5
-0.985, -3.752e-5
-0.986, -3.744e-5
-0.987, -3.737e-5
-0.988, -3.729e-5
-0.989, -3.721e-5
-0.990, -3.714e-5
-0.991, -3.706e-5
-0.992, -3.698e-5
-0.993, -3.690e-5
-0.994, -3.683e-5
-0.995, -3.675e-5
-0.996, -3.667e-5
-0.997, -3.660e-5
-0.998, -3.652e-5
-0.999, -3.644e-5
-1.000, -3.637e-5
-1.001, -3.629e-5
-1.002, -3.622e-5
-1.003, -3.615e-5
-1.004, -3.607e-5
-1.005, -3.600e-5
-1.006, -3.592e-5
-1.007, -3.585e-5
-1.008, -3.578e-5
-1.009, -3.571e-5
-1.010, -3.564e-5
-1.011, -3.556e-5
-1.012, -3.549e-5
-1.013, -3.542e-5
-1.014, -3.535e-5
-1.015, -3.528e-5
-1.016, -3.521e-5
-1.017, -3.514e-5
-1.018, -3.507e-5
-1.019, -3.500e-5
-1.020, -3.494e-5
-1.021, -3.487e-5
-1.022, -3.480e-5
-1.023, -3.473e-5
-1.024, -3.467e-5
-1.025, -3.460e-5
-1.026, -3.454e-5
-1.027, -3.447e-5
-1.028, -3.441e-5
-1.029, -3.435e-5
-1.030, -3.428e-5
-1.031, -3.422e-5
-1.032, -3.416e-5
-1.033, -3.409e-5
-1.034, -3.404e-5
-1.035, -3.397e-5
-1.036, -3.391e-5
-1.037, -3.385e-5
-1.038, -3.379e-5
-1.039, -3.373e-5
-1.040, -3.367e-5
-1.041, -3.361e-5
-1.042, -3.355e-5
-1.043, -3.349e-5
-1.044, -3.344e-5
-1.045, -3.338e-5
-1.046, -3.332e-5
-1.047, -3.327e-5
-1.048, -3.321e-5
-1.049, -3.316e-5
-1.050, -3.310e-5
-1.051, -3.305e-5
-1.052, -3.300e-5
-1.053, -3.295e-5
-1.054, -3.289e-5
-1.055, -3.284e-5
-1.056, -3.279e-5
-1.057, -3.274e-5
-1.058, -3.269e-5
-1.059, -3.264e-5
-1.060, -3.258e-5
-1.061, -3.253e-5
-1.062, -3.249e-5
-1.063, -3.244e-5
-1.064, -3.239e-5
-1.065, -3.234e-5
-1.066, -3.229e-5
-1.067, -3.225e-5
-1.068, -3.220e-5
-1.069, -3.215e-5
-1.070, -3.210e-5
-1.071, -3.205e-5
-1.072, -3.201e-5
-1.073, -3.196e-5
-1.074, -3.192e-5
-1.075, -3.187e-5
-1.076, -3.183e-5
-1.077, -3.179e-5
-1.078, -3.175e-5
-1.079, -3.170e-5
-1.080, -3.166e-5
-1.081, -3.162e-5
-1.082, -3.157e-5
-1.083, -3.153e-5
-1.084, -3.149e-5
-1.085, -3.145e-5
-1.086, -3.141e-5
-1.087, -3.137e-5
-1.088, -3.132e-5
-1.089, -3.129e-5
-1.090, -3.125e-5
-1.091, -3.121e-5
-1.092, -3.117e-5
-1.093, -3.113e-5
-1.094, -3.109e-5
-1.095, -3.105e-5
-1.096, -3.101e-5
-1.097, -3.097e-5
-1.098, -3.093e-5
-1.099, -3.090e-5
-1.100, -3.086e-5
-1.101, -3.082e-5
-1.102, -3.079e-5
-1.103, -3.075e-5
-1.104, -3.072e-5
-1.105, -3.068e-5
-1.106, -3.064e-5
-1.107, -3.061e-5
-1.108, -3.057e-5
-1.109, -3.054e-5
-1.110, -3.051e-5
-1.111, -3.048e-5
-1.112, -3.044e-5
-1.113, -3.041e-5
-1.114, -3.038e-5
-1.115, -3.034e-5
-1.116, -3.031e-5
-1.117, -3.028e-5
-1.118, -3.024e-5
-1.119, -3.021e-5
-1.120, -3.017e-5
-1.121, -3.014e-5
-1.122, -3.011e-5
-1.123, -3.008e-5
-1.124, -3.005e-5
-1.125, -3.002e-5
-1.126, -2.999e-5
-1.127, -2.996e-5
-1.128, -2.993e-5
-1.129, -2.990e-5
-1.130, -2.986e-5
-1.131, -2.984e-5
-1.132, -2.981e-5
-1.133, -2.978e-5
-1.134, -2.975e-5
-1.135, -2.972e-5
-1.136, -2.970e-5
-1.137, -2.967e-5
-1.138, -2.964e-5
-1.139, -2.961e-5
-1.140, -2.958e-5
-1.141, -2.956e-5
-1.142, -2.953e-5
-1.143, -2.950e-5
-1.144, -2.947e-5
-1.145, -2.944e-5
-1.146, -2.942e-5
-1.147, -2.939e-5
-1.148, -2.937e-5
-1.149, -2.935e-5
-1.150, -2.932e-5
-1.151, -2.929e-5
-1.152, -2.926e-5
-1.153, -2.924e-5
-1.154, -2.921e-5
-1.155, -2.919e-5
-1.156, -2.916e-5
-1.157, -2.914e-5
-1.158, -2.911e-5
-1.159, -2.909e-5
-1.160, -2.907e-5
-1.161, -2.905e-5
-1.162, -2.902e-5
-1.163, -2.900e-5
-1.164, -2.898e-5
-1.165, -2.895e-5
-1.166, -2.893e-5
-1.167, -2.891e-5
-1.168, -2.888e-5
-1.169, -2.886e-5
-1.170, -2.884e-5
-1.171, -2.882e-5
-1.172, -2.879e-5
-1.173, -2.877e-5
-1.174, -2.875e-5
-1.175, -2.872e-5
-1.176, -2.870e-5
-1.177, -2.868e-5
-1.178, -2.866e-5
-1.179, -2.865e-5
-1.180, -2.862e-5
-1.181, -2.861e-5
-1.182, -2.858e-5
-1.183, -2.856e-5
-1.184, -2.854e-5
-1.185, -2.852e-5
-1.186, -2.850e-5
-1.187, -2.848e-5
-1.188, -2.846e-5
-1.189, -2.844e-5
-1.190, -2.842e-5
-1.191, -2.840e-5
-1.192, -2.838e-5
-1.193, -2.836e-5
-1.194, -2.835e-5
-1.195, -2.833e-5
-1.196, -2.831e-5
-1.197, -2.829e-5
-1.198, -2.827e-5
-1.199, -2.826e-5
