May 10, 2022   10:13:06
Cyclic Voltammetry
File: c:\users\nstumme\onedrive - university of iowa\documents\year 3\220510\tq\250 mv.csv
Data Source:  Experiment
Instrument Model:  CHI660D
Header: 
Note: 

Init E (V) = -1.2
High E (V) = -0.5
Low E (V) = -1.2
Init P/N = P
Scan Rate (V/s) = 0.25
Segment = 6
Sample Interval (V) = 0.001
Quiet Time (sec) = 2
Sensitivity (A/V) = 1e-4

Segment 1:

Segment 2:

Segment 3:

Segment 4:

Segment 5:
Segment 6:

Potential/V, Current/A

-1.200, -4.071e-5
-1.199, -4.062e-5
-1.198, -4.056e-5
-1.197, -4.053e-5
-1.196, -4.050e-5
-1.195, -4.044e-5
-1.194, -4.038e-5
-1.193, -4.035e-5
-1.192, -4.032e-5
-1.191, -4.025e-5
-1.190, -4.022e-5
-1.189, -4.016e-5
-1.188, -4.013e-5
-1.187, -4.010e-5
-1.186, -4.004e-5
-1.185, -4.001e-5
-1.184, -3.998e-5
-1.183, -3.995e-5
-1.182, -3.989e-5
-1.181, -3.986e-5
-1.180, -3.983e-5
-1.179, -3.977e-5
-1.178, -3.974e-5
-1.177, -3.971e-5
-1.176, -3.968e-5
-1.175, -3.965e-5
-1.174, -3.959e-5
-1.173, -3.956e-5
-1.172, -3.952e-5
-1.171, -3.949e-5
-1.170, -3.943e-5
-1.169, -3.940e-5
-1.168, -3.937e-5
-1.167, -3.934e-5
-1.166, -3.928e-5
-1.165, -3.925e-5
-1.164, -3.922e-5
-1.163, -3.919e-5
-1.162, -3.913e-5
-1.161, -3.910e-5
-1.160, -3.907e-5
-1.159, -3.904e-5
-1.158, -3.901e-5
-1.157, -3.898e-5
-1.156, -3.895e-5
-1.155, -3.892e-5
-1.154, -3.886e-5
-1.153, -3.883e-5
-1.152, -3.879e-5
-1.151, -3.876e-5
-1.150, -3.873e-5
-1.149, -3.867e-5
-1.148, -3.864e-5
-1.147, -3.861e-5
-1.146, -3.858e-5
-1.145, -3.855e-5
-1.144, -3.849e-5
-1.143, -3.849e-5
-1.142, -3.843e-5
-1.141, -3.840e-5
-1.140, -3.837e-5
-1.139, -3.834e-5
-1.138, -3.831e-5
-1.137, -3.828e-5
-1.136, -3.822e-5
-1.135, -3.822e-5
-1.134, -3.819e-5
-1.133, -3.813e-5
-1.132, -3.810e-5
-1.131, -3.807e-5
-1.130, -3.803e-5
-1.129, -3.800e-5
-1.128, -3.794e-5
-1.127, -3.794e-5
-1.126, -3.788e-5
-1.125, -3.785e-5
-1.124, -3.782e-5
-1.123, -3.779e-5
-1.122, -3.776e-5
-1.121, -3.773e-5
-1.120, -3.767e-5
-1.119, -3.764e-5
-1.118, -3.761e-5
-1.117, -3.758e-5
-1.116, -3.755e-5
-1.115, -3.749e-5
-1.114, -3.749e-5
-1.113, -3.743e-5
-1.112, -3.740e-5
-1.111, -3.737e-5
-1.110, -3.734e-5
-1.109, -3.730e-5
-1.108, -3.724e-5
-1.107, -3.721e-5
-1.106, -3.718e-5
-1.105, -3.718e-5
-1.104, -3.712e-5
-1.103, -3.709e-5
-1.102, -3.706e-5
-1.101, -3.703e-5
-1.100, -3.700e-5
-1.099, -3.694e-5
-1.098, -3.691e-5
-1.097, -3.691e-5
-1.096, -3.685e-5
-1.095, -3.682e-5
-1.094, -3.679e-5
-1.093, -3.676e-5
-1.092, -3.670e-5
-1.091, -3.667e-5
-1.090, -3.664e-5
-1.089, -3.661e-5
-1.088, -3.657e-5
-1.087, -3.651e-5
-1.086, -3.648e-5
-1.085, -3.645e-5
-1.084, -3.642e-5
-1.083, -3.636e-5
-1.082, -3.633e-5
-1.081, -3.630e-5
-1.080, -3.627e-5
-1.079, -3.624e-5
-1.078, -3.618e-5
-1.077, -3.618e-5
-1.076, -3.615e-5
-1.075, -3.609e-5
-1.074, -3.606e-5
-1.073, -3.603e-5
-1.072, -3.600e-5
-1.071, -3.594e-5
-1.070, -3.591e-5
-1.069, -3.584e-5
-1.068, -3.581e-5
-1.067, -3.578e-5
-1.066, -3.575e-5
-1.065, -3.569e-5
-1.064, -3.569e-5
-1.063, -3.563e-5
-1.062, -3.560e-5
-1.061, -3.554e-5
-1.060, -3.551e-5
-1.059, -3.548e-5
-1.058, -3.542e-5
-1.057, -3.539e-5
-1.056, -3.536e-5
-1.055, -3.533e-5
-1.054, -3.527e-5
-1.053, -3.521e-5
-1.052, -3.518e-5
-1.051, -3.515e-5
-1.050, -3.511e-5
-1.049, -3.505e-5
-1.048, -3.502e-5
-1.047, -3.496e-5
-1.046, -3.493e-5
-1.045, -3.487e-5
-1.044, -3.484e-5
-1.043, -3.478e-5
-1.042, -3.475e-5
-1.041, -3.469e-5
-1.040, -3.463e-5
-1.039, -3.460e-5
-1.038, -3.457e-5
-1.037, -3.451e-5
-1.036, -3.445e-5
-1.035, -3.442e-5
-1.034, -3.435e-5
-1.033, -3.432e-5
-1.032, -3.426e-5
-1.031, -3.420e-5
-1.030, -3.417e-5
-1.029, -3.411e-5
-1.028, -3.405e-5
-1.027, -3.402e-5
-1.026, -3.396e-5
-1.025, -3.390e-5
-1.024, -3.384e-5
-1.023, -3.378e-5
-1.022, -3.372e-5
-1.021, -3.369e-5
-1.020, -3.362e-5
-1.019, -3.356e-5
-1.018, -3.350e-5
-1.017, -3.344e-5
-1.016, -3.338e-5
-1.015, -3.332e-5
-1.014, -3.326e-5
-1.013, -3.320e-5
-1.012, -3.314e-5
-1.011, -3.305e-5
-1.010, -3.299e-5
-1.009, -3.293e-5
-1.008, -3.286e-5
-1.007, -3.280e-5
-1.006, -3.271e-5
-1.005, -3.265e-5
-1.004, -3.259e-5
-1.003, -3.250e-5
-1.002, -3.244e-5
-1.001, -3.235e-5
-1.000, -3.229e-5
-0.999, -3.220e-5
-0.998, -3.213e-5
-0.997, -3.204e-5
-0.996, -3.195e-5
-0.995, -3.186e-5
-0.994, -3.177e-5
-0.993, -3.171e-5
-0.992, -3.162e-5
-0.991, -3.153e-5
-0.990, -3.140e-5
-0.989, -3.131e-5
-0.988, -3.122e-5
-0.987, -3.113e-5
-0.986, -3.101e-5
-0.985, -3.092e-5
-0.984, -3.083e-5
-0.983, -3.071e-5
-0.982, -3.058e-5
-0.981, -3.049e-5
-0.980, -3.037e-5
-0.979, -3.025e-5
-0.978, -3.013e-5
-0.977, -3.001e-5
-0.976, -2.988e-5
-0.975, -2.976e-5
-0.974, -2.964e-5
-0.973, -2.949e-5
-0.972, -2.937e-5
-0.971, -2.921e-5
-0.970, -2.906e-5
-0.969, -2.894e-5
-0.968, -2.879e-5
-0.967, -2.864e-5
-0.966, -2.848e-5
-0.965, -2.833e-5
-0.964, -2.818e-5
-0.963, -2.800e-5
-0.962, -2.785e-5
-0.961, -2.766e-5
-0.960, -2.748e-5
-0.959, -2.730e-5
-0.958, -2.712e-5
-0.957, -2.693e-5
-0.956, -2.672e-5
-0.955, -2.654e-5
-0.954, -2.633e-5
-0.953, -2.611e-5
-0.952, -2.590e-5
-0.951, -2.572e-5
-0.950, -2.547e-5
-0.949, -2.526e-5
-0.948, -2.505e-5
-0.947, -2.484e-5
-0.946, -2.459e-5
-0.945, -2.432e-5
-0.944, -2.408e-5
-0.943, -2.383e-5
-0.942, -2.356e-5
-0.941, -2.328e-5
-0.940, -2.301e-5
-0.939, -2.274e-5
-0.938, -2.243e-5
-0.937, -2.216e-5
-0.936, -2.185e-5
-0.935, -2.155e-5
-0.934, -2.122e-5
-0.933, -2.091e-5
-0.932, -2.058e-5
-0.931, -2.027e-5
-0.930, -1.991e-5
-0.929, -1.957e-5
-0.928, -1.924e-5
-0.927, -1.887e-5
-0.926, -1.848e-5
-0.925, -1.811e-5
-0.924, -1.775e-5
-0.923, -1.735e-5
-0.922, -1.696e-5
-0.921, -1.650e-5
-0.920, -1.611e-5
-0.919, -1.568e-5
-0.918, -1.526e-5
-0.917, -1.480e-5
-0.916, -1.437e-5
-0.915, -1.392e-5
-0.914, -1.346e-5
-0.913, -1.297e-5
-0.912, -1.252e-5
-0.911, -1.203e-5
-0.910, -1.151e-5
-0.909, -1.100e-5
-0.908, -1.048e-5
-0.907, -9.963e-6
-0.906, -9.446e-6
-0.905, -8.899e-6
-0.904, -8.352e-6
-0.903, -7.835e-6
-0.902, -7.257e-6
-0.901, -6.679e-6
-0.900, -6.071e-6
-0.899, -5.493e-6
-0.898, -4.915e-6
-0.897, -4.307e-6
-0.896, -3.698e-6
-0.895, -3.121e-6
-0.894, -2.512e-6
-0.893, -1.843e-6
-0.892, -1.205e-6
-0.891, -5.354e-7
-0.890, 1.032e-7
-0.889, 7.723e-7
-0.888, 1.472e-6
-0.887, 2.141e-6
-0.886, 2.810e-6
-0.885, 3.479e-6
-0.884, 4.239e-6
-0.883, 4.908e-6
-0.882, 5.608e-6
-0.881, 6.338e-6
-0.880, 7.068e-6
-0.879, 7.798e-6
-0.878, 8.497e-6
-0.877, 9.227e-6
-0.876, 9.987e-6
-0.875, 1.072e-5
-0.874, 1.145e-5
-0.873, 1.218e-5
-0.872, 1.294e-5
-0.871, 1.370e-5
-0.870, 1.452e-5
-0.869, 1.522e-5
-0.868, 1.598e-5
-0.867, 1.674e-5
-0.866, 1.747e-5
-0.865, 1.820e-5
-0.864, 1.896e-5
-0.863, 1.972e-5
-0.862, 2.048e-5
-0.861, 2.118e-5
-0.860, 2.191e-5
-0.859, 2.267e-5
-0.858, 2.340e-5
-0.857, 2.410e-5
-0.856, 2.483e-5
-0.855, 2.556e-5
-0.854, 2.626e-5
-0.853, 2.693e-5
-0.852, 2.763e-5
-0.851, 2.833e-5
-0.850, 2.900e-5
-0.849, 2.966e-5
-0.848, 3.027e-5
-0.847, 3.094e-5
-0.846, 3.161e-5
-0.845, 3.219e-5
-0.844, 3.271e-5
-0.843, 3.337e-5
-0.842, 3.398e-5
-0.841, 3.453e-5
-0.840, 3.508e-5
-0.839, 3.566e-5
-0.838, 3.620e-5
-0.837, 3.672e-5
-0.836, 3.721e-5
-0.835, 3.772e-5
-0.834, 3.818e-5
-0.833, 3.867e-5
-0.832, 3.909e-5
-0.831, 3.949e-5
-0.830, 3.994e-5
-0.829, 4.034e-5
-0.828, 4.067e-5
-0.827, 4.107e-5
-0.826, 4.140e-5
-0.825, 4.174e-5
-0.824, 4.204e-5
-0.823, 4.232e-5
-0.822, 4.262e-5
-0.821, 4.289e-5
-0.820, 4.311e-5
-0.819, 4.317e-5
-0.818, 4.338e-5
-0.817, 4.359e-5
-0.816, 4.375e-5
-0.815, 4.390e-5
-0.814, 4.408e-5
-0.813, 4.420e-5
-0.812, 4.432e-5
-0.811, 4.438e-5
-0.810, 4.445e-5
-0.809, 4.454e-5
-0.808, 4.457e-5
-0.807, 4.457e-5
-0.806, 4.457e-5
-0.805, 4.457e-5
-0.804, 4.457e-5
-0.803, 4.451e-5
-0.802, 4.445e-5
-0.801, 4.438e-5
-0.800, 4.429e-5
-0.799, 4.420e-5
-0.798, 4.408e-5
-0.797, 4.399e-5
-0.796, 4.384e-5
-0.795, 4.372e-5
-0.794, 4.353e-5
-0.793, 4.335e-5
-0.792, 4.320e-5
-0.791, 4.299e-5
-0.790, 4.280e-5
-0.789, 4.262e-5
-0.788, 4.244e-5
-0.787, 4.219e-5
-0.786, 4.195e-5
-0.785, 4.174e-5
-0.784, 4.150e-5
-0.783, 4.125e-5
-0.782, 4.101e-5
-0.781, 4.077e-5
-0.780, 4.052e-5
-0.779, 4.028e-5
-0.778, 4.001e-5
-0.777, 3.973e-5
-0.776, 3.946e-5
-0.775, 3.918e-5
-0.774, 3.891e-5
-0.773, 3.861e-5
-0.772, 3.836e-5
-0.771, 3.809e-5
-0.770, 3.778e-5
-0.769, 3.751e-5
-0.768, 3.724e-5
-0.767, 3.696e-5
-0.766, 3.666e-5
-0.765, 3.636e-5
-0.764, 3.608e-5
-0.763, 3.578e-5
-0.762, 3.550e-5
-0.761, 3.520e-5
-0.760, 3.493e-5
-0.759, 3.465e-5
-0.758, 3.435e-5
-0.757, 3.407e-5
-0.756, 3.380e-5
-0.755, 3.353e-5
-0.754, 3.325e-5
-0.753, 3.298e-5
-0.752, 3.268e-5
-0.751, 3.243e-5
-0.750, 3.216e-5
-0.749, 3.188e-5
-0.748, 3.164e-5
-0.747, 3.137e-5
-0.746, 3.109e-5
-0.745, 3.085e-5
-0.744, 3.058e-5
-0.743, 3.033e-5
-0.742, 3.006e-5
-0.741, 2.982e-5
-0.740, 2.957e-5
-0.739, 2.936e-5
-0.738, 2.909e-5
-0.737, 2.887e-5
-0.736, 2.863e-5
-0.735, 2.839e-5
-0.734, 2.817e-5
-0.733, 2.793e-5
-0.732, 2.772e-5
-0.731, 2.751e-5
-0.730, 2.726e-5
-0.729, 2.705e-5
-0.728, 2.684e-5
-0.727, 2.662e-5
-0.726, 2.641e-5
-0.725, 2.620e-5
-0.724, 2.602e-5
-0.723, 2.580e-5
-0.722, 2.559e-5
-0.721, 2.541e-5
-0.720, 2.522e-5
-0.719, 2.501e-5
-0.718, 2.483e-5
-0.717, 2.465e-5
-0.716, 2.446e-5
-0.715, 2.428e-5
-0.714, 2.410e-5
-0.713, 2.389e-5
-0.712, 2.373e-5
-0.711, 2.355e-5
-0.710, 2.337e-5
-0.709, 2.319e-5
-0.708, 2.303e-5
-0.707, 2.288e-5
-0.706, 2.270e-5
-0.705, 2.252e-5
-0.704, 2.237e-5
-0.703, 2.221e-5
-0.702, 2.206e-5
-0.701, 2.191e-5
-0.700, 2.176e-5
-0.699, 2.161e-5
-0.698, 2.145e-5
-0.697, 2.130e-5
-0.696, 2.115e-5
-0.695, 2.103e-5
-0.694, 2.088e-5
-0.693, 2.072e-5
-0.692, 2.060e-5
-0.691, 2.045e-5
-0.690, 2.033e-5
-0.689, 2.018e-5
-0.688, 2.005e-5
-0.687, 1.990e-5
-0.686, 1.978e-5
-0.685, 1.966e-5
-0.684, 1.954e-5
-0.683, 1.939e-5
-0.682, 1.929e-5
-0.681, 1.914e-5
-0.680, 1.902e-5
-0.679, 1.890e-5
-0.678, 1.881e-5
-0.677, 1.869e-5
-0.676, 1.856e-5
-0.675, 1.844e-5
-0.674, 1.832e-5
-0.673, 1.823e-5
-0.672, 1.811e-5
-0.671, 1.799e-5
-0.670, 1.789e-5
-0.669, 1.777e-5
-0.668, 1.768e-5
-0.667, 1.756e-5
-0.666, 1.747e-5
-0.665, 1.738e-5
-0.664, 1.726e-5
-0.663, 1.713e-5
-0.662, 1.707e-5
-0.661, 1.695e-5
-0.660, 1.686e-5
-0.659, 1.677e-5
-0.658, 1.668e-5
-0.657, 1.659e-5
-0.656, 1.647e-5
-0.655, 1.637e-5
-0.654, 1.628e-5
-0.653, 1.619e-5
-0.652, 1.610e-5
-0.651, 1.601e-5
-0.650, 1.592e-5
-0.649, 1.586e-5
-0.648, 1.577e-5
-0.647, 1.567e-5
-0.646, 1.558e-5
-0.645, 1.549e-5
-0.644, 1.543e-5
-0.643, 1.534e-5
-0.642, 1.525e-5
-0.641, 1.516e-5
-0.640, 1.510e-5
-0.639, 1.501e-5
-0.638, 1.491e-5
-0.637, 1.485e-5
-0.636, 1.479e-5
-0.635, 1.470e-5
-0.634, 1.461e-5
-0.633, 1.455e-5
-0.632, 1.449e-5
-0.631, 1.440e-5
-0.630, 1.434e-5
-0.629, 1.425e-5
-0.628, 1.418e-5
-0.627, 1.412e-5
-0.626, 1.403e-5
-0.625, 1.397e-5
-0.624, 1.391e-5
-0.623, 1.385e-5
-0.622, 1.376e-5
-0.621, 1.370e-5
-0.620, 1.364e-5
-0.619, 1.358e-5
-0.618, 1.352e-5
-0.617, 1.345e-5
-0.616, 1.339e-5
-0.615, 1.333e-5
-0.614, 1.324e-5
-0.613, 1.318e-5
-0.612, 1.315e-5
-0.611, 1.309e-5
-0.610, 1.303e-5
-0.609, 1.294e-5
-0.608, 1.291e-5
-0.607, 1.285e-5
-0.606, 1.279e-5
-0.605, 1.272e-5
-0.604, 1.266e-5
-0.603, 1.263e-5
-0.602, 1.257e-5
-0.601, 1.251e-5
-0.600, 1.245e-5
-0.599, 1.239e-5
-0.598, 1.233e-5
-0.597, 1.230e-5
-0.596, 1.224e-5
-0.595, 1.218e-5
-0.594, 1.215e-5
-0.593, 1.209e-5
-0.592, 1.203e-5
-0.591, 1.199e-5
-0.590, 1.193e-5
-0.589, 1.187e-5
-0.588, 1.184e-5
-0.587, 1.178e-5
-0.586, 1.175e-5
-0.585, 1.169e-5
-0.584, 1.163e-5
-0.583, 1.160e-5
-0.582, 1.157e-5
-0.581, 1.154e-5
-0.580, 1.148e-5
-0.579, 1.145e-5
-0.578, 1.139e-5
-0.577, 1.136e-5
-0.576, 1.133e-5
-0.575, 1.126e-5
-0.574, 1.123e-5
-0.573, 1.120e-5
-0.572, 1.117e-5
-0.571, 1.111e-5
-0.570, 1.108e-5
-0.569, 1.105e-5
-0.568, 1.102e-5
-0.567, 1.099e-5
-0.566, 1.096e-5
-0.565, 1.093e-5
-0.564, 1.087e-5
-0.563, 1.084e-5
-0.562, 1.084e-5
-0.561, 1.081e-5
-0.560, 1.078e-5
-0.559, 1.075e-5
-0.558, 1.072e-5
-0.557, 1.069e-5
-0.556, 1.066e-5
-0.555, 1.063e-5
-0.554, 1.060e-5
-0.553, 1.060e-5
-0.552, 1.060e-5
-0.551, 1.057e-5
-0.550, 1.053e-5
-0.549, 1.053e-5
-0.548, 1.053e-5
-0.547, 1.050e-5
-0.546, 1.050e-5
-0.545, 1.050e-5
-0.544, 1.047e-5
-0.543, 1.047e-5
-0.542, 1.047e-5
-0.541, 1.047e-5
-0.540, 1.047e-5
-0.539, 1.047e-5
-0.538, 1.047e-5
-0.537, 1.050e-5
-0.536, 1.053e-5
-0.535, 1.053e-5
-0.534, 1.057e-5
-0.533, 1.060e-5
-0.532, 1.063e-5
-0.531, 1.066e-5
-0.530, 1.069e-5
-0.529, 1.072e-5
-0.528, 1.078e-5
-0.527, 1.084e-5
-0.526, 1.090e-5
-0.525, 1.096e-5
-0.524, 1.102e-5
-0.523, 1.111e-5
-0.522, 1.117e-5
-0.521, 1.126e-5
-0.520, 1.136e-5
-0.519, 1.145e-5
-0.518, 1.154e-5
-0.517, 1.163e-5
-0.516, 1.175e-5
-0.515, 1.187e-5
-0.514, 1.196e-5
-0.513, 1.209e-5
-0.512, 1.224e-5
-0.511, 1.239e-5
-0.510, 1.251e-5
-0.509, 1.266e-5
-0.508, 1.279e-5
-0.507, 1.294e-5
-0.506, 1.309e-5
-0.505, 1.324e-5
-0.504, 1.339e-5
-0.503, 1.358e-5
-0.502, 1.373e-5
-0.501, 1.388e-5
-0.500, 1.388e-5
-0.501, 1.321e-5
-0.502, 1.263e-5
-0.503, 1.218e-5
-0.504, 1.178e-5
-0.505, 1.145e-5
-0.506, 1.111e-5
-0.507, 1.084e-5
-0.508, 1.057e-5
-0.509, 1.029e-5
-0.510, 1.008e-5
-0.511, 9.835e-6
-0.512, 9.622e-6
-0.513, 9.410e-6
-0.514, 9.227e-6
-0.515, 9.045e-6
-0.516, 8.862e-6
-0.517, 8.710e-6
-0.518, 8.558e-6
-0.519, 8.406e-6
-0.520, 8.254e-6
-0.521, 8.132e-6
-0.522, 8.011e-6
-0.523, 7.889e-6
-0.524, 7.767e-6
-0.525, 7.646e-6
-0.526, 7.554e-6
-0.527, 7.433e-6
-0.528, 7.342e-6
-0.529, 7.250e-6
-0.530, 7.159e-6
-0.531, 7.098e-6
-0.532, 7.007e-6
-0.533, 6.946e-6
-0.534, 6.885e-6
-0.535, 6.824e-6
-0.536, 6.733e-6
-0.537, 6.703e-6
-0.538, 6.642e-6
-0.539, 6.612e-6
-0.540, 6.551e-6
-0.541, 6.490e-6
-0.542, 6.460e-6
-0.543, 6.429e-6
-0.544, 6.368e-6
-0.545, 6.338e-6
-0.546, 6.307e-6
-0.547, 6.277e-6
-0.548, 6.247e-6
-0.549, 6.186e-6
-0.550, 6.155e-6
-0.551, 6.155e-6
-0.552, 6.125e-6
-0.553, 6.095e-6
-0.554, 6.064e-6
-0.555, 6.034e-6
-0.556, 6.034e-6
-0.557, 6.003e-6
-0.558, 5.973e-6
-0.559, 5.943e-6
-0.560, 5.943e-6
-0.561, 5.912e-6
-0.562, 5.882e-6
-0.563, 5.851e-6
-0.564, 5.851e-6
-0.565, 5.821e-6
-0.566, 5.790e-6
-0.567, 5.790e-6
-0.568, 5.760e-6
-0.569, 5.730e-6
-0.570, 5.699e-6
-0.571, 5.699e-6
-0.572, 5.669e-6
-0.573, 5.669e-6
-0.574, 5.638e-6
-0.575, 5.608e-6
-0.576, 5.608e-6
-0.577, 5.578e-6
-0.578, 5.547e-6
-0.579, 5.547e-6
-0.580, 5.517e-6
-0.581, 5.517e-6
-0.582, 5.486e-6
-0.583, 5.456e-6
-0.584, 5.456e-6
-0.585, 5.426e-6
-0.586, 5.426e-6
-0.587, 5.395e-6
-0.588, 5.395e-6
-0.589, 5.365e-6
-0.590, 5.334e-6
-0.591, 5.304e-6
-0.592, 5.304e-6
-0.593, 5.273e-6
-0.594, 5.273e-6
-0.595, 5.243e-6
-0.596, 5.213e-6
-0.597, 5.213e-6
-0.598, 5.213e-6
-0.599, 5.182e-6
-0.600, 5.152e-6
-0.601, 5.152e-6
-0.602, 5.121e-6
-0.603, 5.091e-6
-0.604, 5.091e-6
-0.605, 5.091e-6
-0.606, 5.061e-6
-0.607, 5.030e-6
-0.608, 5.030e-6
-0.609, 5.000e-6
-0.610, 5.000e-6
-0.611, 4.969e-6
-0.612, 4.939e-6
-0.613, 4.939e-6
-0.614, 4.939e-6
-0.615, 4.908e-6
-0.616, 4.878e-6
-0.617, 4.848e-6
-0.618, 4.878e-6
-0.619, 4.848e-6
-0.620, 4.817e-6
-0.621, 4.787e-6
-0.622, 4.787e-6
-0.623, 4.756e-6
-0.624, 4.726e-6
-0.625, 4.726e-6
-0.626, 4.726e-6
-0.627, 4.696e-6
-0.628, 4.665e-6
-0.629, 4.665e-6
-0.630, 4.635e-6
-0.631, 4.635e-6
-0.632, 4.604e-6
-0.633, 4.574e-6
-0.634, 4.574e-6
-0.635, 4.574e-6
-0.636, 4.544e-6
-0.637, 4.513e-6
-0.638, 4.513e-6
-0.639, 4.483e-6
-0.640, 4.483e-6
-0.641, 4.452e-6
-0.642, 4.422e-6
-0.643, 4.422e-6
-0.644, 4.422e-6
-0.645, 4.361e-6
-0.646, 4.361e-6
-0.647, 4.361e-6
-0.648, 4.331e-6
-0.649, 4.300e-6
-0.650, 4.300e-6
-0.651, 4.270e-6
-0.652, 4.270e-6
-0.653, 4.239e-6
-0.654, 4.209e-6
-0.655, 4.209e-6
-0.656, 4.209e-6
-0.657, 4.179e-6
-0.658, 4.148e-6
-0.659, 4.148e-6
-0.660, 4.118e-6
-0.661, 4.118e-6
-0.662, 4.087e-6
-0.663, 4.057e-6
-0.664, 4.057e-6
-0.665, 4.027e-6
-0.666, 3.996e-6
-0.667, 3.966e-6
-0.668, 3.966e-6
-0.669, 3.966e-6
-0.670, 3.935e-6
-0.671, 3.905e-6
-0.672, 3.905e-6
-0.673, 3.874e-6
-0.674, 3.844e-6
-0.675, 3.814e-6
-0.676, 3.814e-6
-0.677, 3.783e-6
-0.678, 3.753e-6
-0.679, 3.722e-6
-0.680, 3.722e-6
-0.681, 3.722e-6
-0.682, 3.692e-6
-0.683, 3.662e-6
-0.684, 3.631e-6
-0.685, 3.631e-6
-0.686, 3.601e-6
-0.687, 3.570e-6
-0.688, 3.540e-6
-0.689, 3.540e-6
-0.690, 3.509e-6
-0.691, 3.479e-6
-0.692, 3.449e-6
-0.693, 3.449e-6
-0.694, 3.418e-6
-0.695, 3.388e-6
-0.696, 3.357e-6
-0.697, 3.327e-6
-0.698, 3.297e-6
-0.699, 3.266e-6
-0.700, 3.236e-6
-0.701, 3.236e-6
-0.702, 3.205e-6
-0.703, 3.175e-6
-0.704, 3.145e-6
-0.705, 3.114e-6
-0.706, 3.084e-6
-0.707, 3.053e-6
-0.708, 3.023e-6
-0.709, 2.992e-6
-0.710, 2.962e-6
-0.711, 2.932e-6
-0.712, 2.901e-6
-0.713, 2.871e-6
-0.714, 2.840e-6
-0.715, 2.810e-6
-0.716, 2.749e-6
-0.717, 2.719e-6
-0.718, 2.688e-6
-0.719, 2.658e-6
-0.720, 2.597e-6
-0.721, 2.567e-6
-0.722, 2.536e-6
-0.723, 2.506e-6
-0.724, 2.445e-6
-0.725, 2.415e-6
-0.726, 2.384e-6
-0.727, 2.323e-6
-0.728, 2.263e-6
-0.729, 2.232e-6
-0.730, 2.202e-6
-0.731, 2.141e-6
-0.732, 2.080e-6
-0.733, 2.019e-6
-0.734, 1.989e-6
-0.735, 1.958e-6
-0.736, 1.867e-6
-0.737, 1.837e-6
-0.738, 1.776e-6
-0.739, 1.715e-6
-0.740, 1.654e-6
-0.741, 1.563e-6
-0.742, 1.533e-6
-0.743, 1.472e-6
-0.744, 1.411e-6
-0.745, 1.320e-6
-0.746, 1.259e-6
-0.747, 1.198e-6
-0.748, 1.107e-6
-0.749, 1.046e-6
-0.750, 9.548e-7
-0.751, 8.940e-7
-0.752, 8.027e-7
-0.753, 7.115e-7
-0.754, 6.203e-7
-0.755, 5.290e-7
-0.756, 4.378e-7
-0.757, 3.465e-7
-0.758, 2.553e-7
-0.759, 1.641e-7
-0.760, 7.283e-8
-0.761, -4.883e-8
-0.762, -1.705e-7
-0.763, -2.617e-7
-0.764, -3.834e-7
-0.765, -5.050e-7
-0.766, -6.267e-7
-0.767, -7.483e-7
-0.768, -9.004e-7
-0.769, -1.022e-6
-0.770, -1.144e-6
-0.771, -1.296e-6
-0.772, -1.417e-6
-0.773, -1.569e-6
-0.774, -1.722e-6
-0.775, -1.874e-6
-0.776, -2.026e-6
-0.777, -2.208e-6
-0.778, -2.360e-6
-0.779, -2.543e-6
-0.780, -2.725e-6
-0.781, -2.908e-6
-0.782, -3.090e-6
-0.783, -3.273e-6
-0.784, -3.485e-6
-0.785, -3.668e-6
-0.786, -3.911e-6
-0.787, -4.094e-6
-0.788, -4.307e-6
-0.789, -4.550e-6
-0.790, -4.763e-6
-0.791, -5.006e-6
-0.792, -5.249e-6
-0.793, -5.493e-6
-0.794, -5.736e-6
-0.795, -5.979e-6
-0.796, -6.253e-6
-0.797, -6.527e-6
-0.798, -6.831e-6
-0.799, -7.105e-6
-0.800, -7.378e-6
-0.801, -7.682e-6
-0.802, -8.017e-6
-0.803, -8.321e-6
-0.804, -8.625e-6
-0.805, -8.960e-6
-0.806, -9.294e-6
-0.807, -9.629e-6
-0.808, -9.994e-6
-0.809, -1.033e-5
-0.810, -1.072e-5
-0.811, -1.109e-5
-0.812, -1.145e-5
-0.813, -1.182e-5
-0.814, -1.221e-5
-0.815, -1.264e-5
-0.816, -1.304e-5
-0.817, -1.343e-5
-0.818, -1.389e-5
-0.819, -1.428e-5
-0.820, -1.465e-5
-0.821, -1.507e-5
-0.822, -1.556e-5
-0.823, -1.602e-5
-0.824, -1.647e-5
-0.825, -1.693e-5
-0.826, -1.741e-5
-0.827, -1.793e-5
-0.828, -1.842e-5
-0.829, -1.887e-5
-0.830, -1.939e-5
-0.831, -1.994e-5
-0.832, -2.046e-5
-0.833, -2.097e-5
-0.834, -2.149e-5
-0.835, -2.204e-5
-0.836, -2.255e-5
-0.837, -2.313e-5
-0.838, -2.365e-5
-0.839, -2.420e-5
-0.840, -2.477e-5
-0.841, -2.532e-5
-0.842, -2.587e-5
-0.843, -2.645e-5
-0.844, -2.706e-5
-0.845, -2.757e-5
-0.846, -2.815e-5
-0.847, -2.876e-5
-0.848, -2.937e-5
-0.849, -2.991e-5
-0.850, -3.049e-5
-0.851, -3.110e-5
-0.852, -3.171e-5
-0.853, -3.232e-5
-0.854, -3.286e-5
-0.855, -3.347e-5
-0.856, -3.408e-5
-0.857, -3.469e-5
-0.858, -3.527e-5
-0.859, -3.588e-5
-0.860, -3.648e-5
-0.861, -3.706e-5
-0.862, -3.764e-5
-0.863, -3.825e-5
-0.864, -3.883e-5
-0.865, -3.940e-5
-0.866, -3.998e-5
-0.867, -4.056e-5
-0.868, -4.114e-5
-0.869, -4.171e-5
-0.870, -4.226e-5
-0.871, -4.287e-5
-0.872, -4.345e-5
-0.873, -4.400e-5
-0.874, -4.451e-5
-0.875, -4.503e-5
-0.876, -4.558e-5
-0.877, -4.612e-5
-0.878, -4.661e-5
-0.879, -4.713e-5
-0.880, -4.765e-5
-0.881, -4.816e-5
-0.882, -4.865e-5
-0.883, -4.910e-5
-0.884, -4.956e-5
-0.885, -5.005e-5
-0.886, -5.053e-5
-0.887, -5.093e-5
-0.888, -5.139e-5
-0.889, -5.184e-5
-0.890, -5.227e-5
-0.891, -5.266e-5
-0.892, -5.303e-5
-0.893, -5.345e-5
-0.894, -5.382e-5
-0.895, -5.421e-5
-0.896, -5.455e-5
-0.897, -5.488e-5
-0.898, -5.525e-5
-0.899, -5.558e-5
-0.900, -5.589e-5
-0.901, -5.622e-5
-0.902, -5.656e-5
-0.903, -5.683e-5
-0.904, -5.710e-5
-0.905, -5.738e-5
-0.906, -5.768e-5
-0.907, -5.796e-5
-0.908, -5.820e-5
-0.909, -5.844e-5
-0.910, -5.868e-5
-0.911, -5.893e-5
-0.912, -5.911e-5
-0.913, -5.932e-5
-0.914, -5.954e-5
-0.915, -5.972e-5
-0.916, -5.990e-5
-0.917, -6.005e-5
-0.918, -6.024e-5
-0.919, -6.039e-5
-0.920, -6.051e-5
-0.921, -6.066e-5
-0.922, -6.084e-5
-0.923, -6.097e-5
-0.924, -6.106e-5
-0.925, -6.115e-5
-0.926, -6.124e-5
-0.927, -6.136e-5
-0.928, -6.142e-5
-0.929, -6.148e-5
-0.930, -6.157e-5
-0.931, -6.164e-5
-0.932, -6.170e-5
-0.933, -6.173e-5
-0.934, -6.179e-5
-0.935, -6.185e-5
-0.936, -6.188e-5
-0.937, -6.191e-5
-0.938, -6.191e-5
-0.939, -6.194e-5
-0.940, -6.194e-5
-0.941, -6.194e-5
-0.942, -6.194e-5
-0.943, -6.194e-5
-0.944, -6.194e-5
-0.945, -6.191e-5
-0.946, -6.191e-5
-0.947, -6.188e-5
-0.948, -6.182e-5
-0.949, -6.182e-5
-0.950, -6.176e-5
-0.951, -6.173e-5
-0.952, -6.170e-5
-0.953, -6.167e-5
-0.954, -6.160e-5
-0.955, -6.154e-5
-0.956, -6.148e-5
-0.957, -6.145e-5
-0.958, -6.139e-5
-0.959, -6.130e-5
-0.960, -6.124e-5
-0.961, -6.118e-5
-0.962, -6.112e-5
-0.963, -6.103e-5
-0.964, -6.094e-5
-0.965, -6.087e-5
-0.966, -6.078e-5
-0.967, -6.069e-5
-0.968, -6.060e-5
-0.969, -6.054e-5
-0.970, -6.045e-5
-0.971, -6.033e-5
-0.972, -6.024e-5
-0.973, -6.018e-5
-0.974, -6.005e-5
-0.975, -5.996e-5
-0.976, -5.987e-5
-0.977, -5.975e-5
-0.978, -5.966e-5
-0.979, -5.954e-5
-0.980, -5.941e-5
-0.981, -5.932e-5
-0.982, -5.923e-5
-0.983, -5.911e-5
-0.984, -5.899e-5
-0.985, -5.890e-5
-0.986, -5.878e-5
-0.987, -5.865e-5
-0.988, -5.853e-5
-0.989, -5.841e-5
-0.990, -5.829e-5
-0.991, -5.820e-5
-0.992, -5.808e-5
-0.993, -5.796e-5
-0.994, -5.783e-5
-0.995, -5.771e-5
-0.996, -5.759e-5
-0.997, -5.747e-5
-0.998, -5.735e-5
-0.999, -5.719e-5
-1.000, -5.710e-5
-1.001, -5.698e-5
-1.002, -5.686e-5
-1.003, -5.674e-5
-1.004, -5.662e-5
-1.005, -5.650e-5
-1.006, -5.637e-5
-1.007, -5.625e-5
-1.008, -5.613e-5
-1.009, -5.601e-5
-1.010, -5.589e-5
-1.011, -5.577e-5
-1.012, -5.564e-5
-1.013, -5.552e-5
-1.014, -5.540e-5
-1.015, -5.528e-5
-1.016, -5.516e-5
-1.017, -5.504e-5
-1.018, -5.491e-5
-1.019, -5.479e-5
-1.020, -5.467e-5
-1.021, -5.455e-5
-1.022, -5.443e-5
-1.023, -5.431e-5
-1.024, -5.421e-5
-1.025, -5.409e-5
-1.026, -5.397e-5
-1.027, -5.385e-5
-1.028, -5.373e-5
-1.029, -5.361e-5
-1.030, -5.348e-5
-1.031, -5.336e-5
-1.032, -5.324e-5
-1.033, -5.315e-5
-1.034, -5.303e-5
-1.035, -5.291e-5
-1.036, -5.278e-5
-1.037, -5.269e-5
-1.038, -5.257e-5
-1.039, -5.245e-5
-1.040, -5.233e-5
-1.041, -5.224e-5
-1.042, -5.212e-5
-1.043, -5.199e-5
-1.044, -5.190e-5
-1.045, -5.181e-5
-1.046, -5.169e-5
-1.047, -5.157e-5
-1.048, -5.148e-5
-1.049, -5.136e-5
-1.050, -5.126e-5
-1.051, -5.114e-5
-1.052, -5.102e-5
-1.053, -5.093e-5
-1.054, -5.084e-5
-1.055, -5.072e-5
-1.056, -5.063e-5
-1.057, -5.053e-5
-1.058, -5.041e-5
-1.059, -5.029e-5
-1.060, -5.020e-5
-1.061, -5.011e-5
-1.062, -5.002e-5
-1.063, -4.993e-5
-1.064, -4.980e-5
-1.065, -4.971e-5
-1.066, -4.962e-5
-1.067, -4.953e-5
-1.068, -4.941e-5
-1.069, -4.932e-5
-1.070, -4.926e-5
-1.071, -4.917e-5
-1.072, -4.904e-5
-1.073, -4.895e-5
-1.074, -4.886e-5
-1.075, -4.877e-5
-1.076, -4.868e-5
-1.077, -4.859e-5
-1.078, -4.850e-5
-1.079, -4.841e-5
-1.080, -4.831e-5
-1.081, -4.822e-5
-1.082, -4.813e-5
-1.083, -4.807e-5
-1.084, -4.795e-5
-1.085, -4.786e-5
-1.086, -4.780e-5
-1.087, -4.771e-5
-1.088, -4.761e-5
-1.089, -4.752e-5
-1.090, -4.746e-5
-1.091, -4.737e-5
-1.092, -4.728e-5
-1.093, -4.722e-5
-1.094, -4.713e-5
-1.095, -4.704e-5
-1.096, -4.698e-5
-1.097, -4.688e-5
-1.098, -4.679e-5
-1.099, -4.673e-5
-1.100, -4.667e-5
-1.101, -4.655e-5
-1.102, -4.649e-5
-1.103, -4.640e-5
-1.104, -4.634e-5
-1.105, -4.625e-5
-1.106, -4.619e-5
-1.107, -4.609e-5
-1.108, -4.603e-5
-1.109, -4.594e-5
-1.110, -4.588e-5
-1.111, -4.579e-5
-1.112, -4.573e-5
-1.113, -4.567e-5
-1.114, -4.558e-5
-1.115, -4.552e-5
-1.116, -4.546e-5
-1.117, -4.539e-5
-1.118, -4.530e-5
-1.119, -4.521e-5
-1.120, -4.518e-5
-1.121, -4.509e-5
-1.122, -4.503e-5
-1.123, -4.494e-5
-1.124, -4.491e-5
-1.125, -4.485e-5
-1.126, -4.476e-5
-1.127, -4.470e-5
-1.128, -4.463e-5
-1.129, -4.457e-5
-1.130, -4.451e-5
-1.131, -4.442e-5
-1.132, -4.439e-5
-1.133, -4.430e-5
-1.134, -4.424e-5
-1.135, -4.418e-5
-1.136, -4.412e-5
-1.137, -4.406e-5
-1.138, -4.400e-5
-1.139, -4.393e-5
-1.140, -4.387e-5
-1.141, -4.381e-5
-1.142, -4.375e-5
-1.143, -4.369e-5
-1.144, -4.363e-5
-1.145, -4.357e-5
-1.146, -4.354e-5
-1.147, -4.345e-5
-1.148, -4.342e-5
-1.149, -4.336e-5
-1.150, -4.330e-5
-1.151, -4.324e-5
-1.152, -4.317e-5
-1.153, -4.311e-5
-1.154, -4.305e-5
-1.155, -4.299e-5
-1.156, -4.293e-5
-1.157, -4.290e-5
-1.158, -4.284e-5
-1.159, -4.278e-5
-1.160, -4.272e-5
-1.161, -4.266e-5
-1.162, -4.263e-5
-1.163, -4.257e-5
-1.164, -4.251e-5
-1.165, -4.247e-5
-1.166, -4.241e-5
-1.167, -4.235e-5
-1.168, -4.229e-5
-1.169, -4.226e-5
-1.170, -4.220e-5
-1.171, -4.217e-5
-1.172, -4.211e-5
-1.173, -4.205e-5
-1.174, -4.202e-5
-1.175, -4.199e-5
-1.176, -4.193e-5
-1.177, -4.187e-5
-1.178, -4.184e-5
-1.179, -4.178e-5
-1.180, -4.171e-5
-1.181, -4.168e-5
-1.182, -4.162e-5
-1.183, -4.159e-5
-1.184, -4.153e-5
-1.185, -4.150e-5
-1.186, -4.144e-5
-1.187, -4.141e-5
-1.188, -4.135e-5
-1.189, -4.129e-5
-1.190, -4.126e-5
-1.191, -4.123e-5
-1.192, -4.120e-5
-1.193, -4.114e-5
-1.194, -4.108e-5
-1.195, -4.108e-5
-1.196, -4.102e-5
-1.197, -4.095e-5
-1.198, -4.092e-5
-1.199, -4.089e-5
-1.200, -4.077e-5
-1.199, -4.062e-5
-1.198, -4.050e-5
-1.197, -4.041e-5
-1.196, -4.035e-5
-1.195, -4.025e-5
-1.194, -4.016e-5
-1.193, -4.007e-5
-1.192, -4.001e-5
-1.191, -3.992e-5
-1.190, -3.986e-5
-1.189, -3.977e-5
-1.188, -3.971e-5
-1.187, -3.965e-5
-1.186, -3.956e-5
-1.185, -3.949e-5
-1.184, -3.946e-5
-1.183, -3.937e-5
-1.182, -3.931e-5
-1.181, -3.925e-5
-1.180, -3.919e-5
-1.179, -3.913e-5
-1.178, -3.904e-5
-1.177, -3.898e-5
-1.176, -3.895e-5
-1.175, -3.889e-5
-1.174, -3.879e-5
-1.173, -3.873e-5
-1.172, -3.867e-5
-1.171, -3.864e-5
-1.170, -3.858e-5
-1.169, -3.849e-5
-1.168, -3.846e-5
-1.167, -3.840e-5
-1.166, -3.834e-5
-1.165, -3.828e-5
-1.164, -3.822e-5
-1.163, -3.816e-5
-1.162, -3.813e-5
-1.161, -3.803e-5
-1.160, -3.800e-5
-1.159, -3.794e-5
-1.158, -3.788e-5
-1.157, -3.782e-5
-1.156, -3.776e-5
-1.155, -3.773e-5
-1.154, -3.767e-5
-1.153, -3.761e-5
-1.152, -3.758e-5
-1.151, -3.752e-5
-1.150, -3.749e-5
-1.149, -3.740e-5
-1.148, -3.737e-5
-1.147, -3.730e-5
-1.146, -3.727e-5
-1.145, -3.721e-5
-1.144, -3.715e-5
-1.143, -3.709e-5
-1.142, -3.706e-5
-1.141, -3.700e-5
-1.140, -3.694e-5
-1.139, -3.691e-5
-1.138, -3.685e-5
-1.137, -3.682e-5
-1.136, -3.676e-5
-1.135, -3.670e-5
-1.134, -3.667e-5
-1.133, -3.661e-5
-1.132, -3.657e-5
-1.131, -3.651e-5
-1.130, -3.648e-5
-1.129, -3.642e-5
-1.128, -3.636e-5
-1.127, -3.633e-5
-1.126, -3.627e-5
-1.125, -3.624e-5
-1.124, -3.618e-5
-1.123, -3.612e-5
-1.122, -3.609e-5
-1.121, -3.606e-5
-1.120, -3.600e-5
-1.119, -3.594e-5
-1.118, -3.591e-5
-1.117, -3.588e-5
-1.116, -3.581e-5
-1.115, -3.575e-5
-1.114, -3.572e-5
-1.113, -3.569e-5
-1.112, -3.563e-5
-1.111, -3.557e-5
-1.110, -3.554e-5
-1.109, -3.551e-5
-1.108, -3.545e-5
-1.107, -3.539e-5
-1.106, -3.536e-5
-1.105, -3.533e-5
-1.104, -3.527e-5
-1.103, -3.521e-5
-1.102, -3.518e-5
-1.101, -3.515e-5
-1.100, -3.508e-5
-1.099, -3.505e-5
-1.098, -3.499e-5
-1.097, -3.496e-5
-1.096, -3.493e-5
-1.095, -3.487e-5
-1.094, -3.481e-5
-1.093, -3.478e-5
-1.092, -3.475e-5
-1.091, -3.469e-5
-1.090, -3.463e-5
-1.089, -3.460e-5
-1.088, -3.457e-5
-1.087, -3.451e-5
-1.086, -3.445e-5
-1.085, -3.442e-5
-1.084, -3.439e-5
-1.083, -3.432e-5
-1.082, -3.429e-5
-1.081, -3.423e-5
-1.080, -3.420e-5
-1.079, -3.417e-5
-1.078, -3.411e-5
-1.077, -3.405e-5
-1.076, -3.402e-5
-1.075, -3.399e-5
-1.074, -3.393e-5
-1.073, -3.390e-5
-1.072, -3.384e-5
-1.071, -3.381e-5
-1.070, -3.375e-5
-1.069, -3.372e-5
-1.068, -3.366e-5
-1.067, -3.362e-5
-1.066, -3.356e-5
-1.065, -3.353e-5
-1.064, -3.347e-5
-1.063, -3.344e-5
-1.062, -3.338e-5
-1.061, -3.335e-5
-1.060, -3.329e-5
-1.059, -3.326e-5
-1.058, -3.320e-5
-1.057, -3.317e-5
-1.056, -3.311e-5
-1.055, -3.308e-5
-1.054, -3.302e-5
-1.053, -3.296e-5
-1.052, -3.293e-5
-1.051, -3.289e-5
-1.050, -3.283e-5
-1.049, -3.277e-5
-1.048, -3.274e-5
-1.047, -3.268e-5
-1.046, -3.265e-5
-1.045, -3.259e-5
-1.044, -3.253e-5
-1.043, -3.250e-5
-1.042, -3.244e-5
-1.041, -3.238e-5
-1.040, -3.235e-5
-1.039, -3.229e-5
-1.038, -3.226e-5
-1.037, -3.220e-5
-1.036, -3.213e-5
-1.035, -3.207e-5
-1.034, -3.204e-5
-1.033, -3.198e-5
-1.032, -3.192e-5
-1.031, -3.186e-5
-1.030, -3.183e-5
-1.029, -3.177e-5
-1.028, -3.171e-5
-1.027, -3.165e-5
-1.026, -3.162e-5
-1.025, -3.156e-5
-1.024, -3.150e-5
-1.023, -3.143e-5
-1.022, -3.137e-5
-1.021, -3.131e-5
-1.020, -3.125e-5
-1.019, -3.119e-5
-1.018, -3.113e-5
-1.017, -3.107e-5
-1.016, -3.101e-5
-1.015, -3.095e-5
-1.014, -3.089e-5
-1.013, -3.083e-5
-1.012, -3.077e-5
-1.011, -3.067e-5
-1.010, -3.061e-5
-1.009, -3.055e-5
-1.008, -3.049e-5
-1.007, -3.040e-5
-1.006, -3.034e-5
-1.005, -3.028e-5
-1.004, -3.022e-5
-1.003, -3.013e-5
-1.002, -3.004e-5
-1.001, -2.998e-5
-1.000, -2.991e-5
-0.999, -2.982e-5
-0.998, -2.976e-5
-0.997, -2.967e-5
-0.996, -2.958e-5
-0.995, -2.952e-5
-0.994, -2.940e-5
-0.993, -2.934e-5
-0.992, -2.925e-5
-0.991, -2.915e-5
-0.990, -2.906e-5
-0.989, -2.897e-5
-0.988, -2.888e-5
-0.987, -2.879e-5
-0.986, -2.870e-5
-0.985, -2.861e-5
-0.984, -2.852e-5
-0.983, -2.839e-5
-0.982, -2.830e-5
-0.981, -2.818e-5
-0.980, -2.809e-5
-0.979, -2.797e-5
-0.978, -2.788e-5
-0.977, -2.776e-5
-0.976, -2.763e-5
-0.975, -2.751e-5
-0.974, -2.739e-5
-0.973, -2.727e-5
-0.972, -2.715e-5
-0.971, -2.699e-5
-0.970, -2.687e-5
-0.969, -2.675e-5
-0.968, -2.663e-5
-0.967, -2.648e-5
-0.966, -2.633e-5
-0.965, -2.620e-5
-0.964, -2.605e-5
-0.963, -2.590e-5
-0.962, -2.575e-5
-0.961, -2.560e-5
-0.960, -2.541e-5
-0.959, -2.526e-5
-0.958, -2.511e-5
-0.957, -2.493e-5
-0.956, -2.474e-5
-0.955, -2.459e-5
-0.954, -2.441e-5
-0.953, -2.420e-5
-0.952, -2.401e-5
-0.951, -2.383e-5
-0.950, -2.365e-5
-0.949, -2.344e-5
-0.948, -2.322e-5
-0.947, -2.304e-5
-0.946, -2.283e-5
-0.945, -2.258e-5
-0.944, -2.237e-5
-0.943, -2.216e-5
-0.942, -2.192e-5
-0.941, -2.167e-5
-0.940, -2.143e-5
-0.939, -2.119e-5
-0.938, -2.094e-5
-0.937, -2.067e-5
-0.936, -2.043e-5
-0.935, -2.015e-5
-0.934, -1.985e-5
-0.933, -1.957e-5
-0.932, -1.930e-5
-0.931, -1.900e-5
-0.930, -1.872e-5
-0.929, -1.839e-5
-0.928, -1.808e-5
-0.927, -1.778e-5
-0.926, -1.745e-5
-0.925, -1.711e-5
-0.924, -1.678e-5
-0.923, -1.644e-5
-0.922, -1.611e-5
-0.921, -1.571e-5
-0.920, -1.535e-5
-0.919, -1.498e-5
-0.918, -1.462e-5
-0.917, -1.422e-5
-0.916, -1.383e-5
-0.915, -1.346e-5
-0.914, -1.307e-5
-0.913, -1.261e-5
-0.912, -1.221e-5
-0.911, -1.179e-5
-0.910, -1.136e-5
-0.909, -1.091e-5
-0.908, -1.045e-5
-0.907, -9.994e-6
-0.906, -9.568e-6
-0.905, -9.081e-6
-0.904, -8.595e-6
-0.903, -8.108e-6
-0.902, -7.622e-6
-0.901, -7.135e-6
-0.900, -6.618e-6
-0.899, -6.101e-6
-0.898, -5.614e-6
-0.897, -5.067e-6
-0.896, -4.550e-6
-0.895, -4.033e-6
-0.894, -3.485e-6
-0.893, -2.908e-6
-0.892, -2.360e-6
-0.891, -1.752e-6
-0.890, -1.235e-6
-0.889, -6.571e-7
-0.888, -4.883e-8
-0.887, 5.594e-7
-0.886, 1.137e-6
-0.885, 1.715e-6
-0.884, 2.323e-6
-0.883, 2.992e-6
-0.882, 3.570e-6
-0.881, 4.209e-6
-0.880, 4.817e-6
-0.879, 5.456e-6
-0.878, 6.095e-6
-0.877, 6.703e-6
-0.876, 7.372e-6
-0.875, 8.041e-6
-0.874, 8.680e-6
-0.873, 9.288e-6
-0.872, 9.957e-6
-0.871, 1.063e-5
-0.870, 1.133e-5
-0.869, 1.196e-5
-0.868, 1.260e-5
-0.867, 1.327e-5
-0.866, 1.391e-5
-0.865, 1.452e-5
-0.864, 1.516e-5
-0.863, 1.586e-5
-0.862, 1.653e-5
-0.861, 1.713e-5
-0.860, 1.777e-5
-0.859, 1.844e-5
-0.858, 1.908e-5
-0.857, 1.972e-5
-0.856, 2.033e-5
-0.855, 2.097e-5
-0.854, 2.157e-5
-0.853, 2.215e-5
-0.852, 2.276e-5
-0.851, 2.334e-5
-0.850, 2.395e-5
-0.849, 2.452e-5
-0.848, 2.507e-5
-0.847, 2.562e-5
-0.846, 2.620e-5
-0.845, 2.674e-5
-0.844, 2.720e-5
-0.843, 2.775e-5
-0.842, 2.827e-5
-0.841, 2.878e-5
-0.840, 2.927e-5
-0.839, 2.973e-5
-0.838, 3.018e-5
-0.837, 3.067e-5
-0.836, 3.109e-5
-0.835, 3.152e-5
-0.834, 3.192e-5
-0.833, 3.237e-5
-0.832, 3.277e-5
-0.831, 3.310e-5
-0.830, 3.350e-5
-0.829, 3.383e-5
-0.828, 3.417e-5
-0.827, 3.447e-5
-0.826, 3.477e-5
-0.825, 3.505e-5
-0.824, 3.532e-5
-0.823, 3.556e-5
-0.822, 3.581e-5
-0.821, 3.605e-5
-0.820, 3.626e-5
-0.819, 3.633e-5
-0.818, 3.651e-5
-0.817, 3.672e-5
-0.816, 3.687e-5
-0.815, 3.699e-5
-0.814, 3.712e-5
-0.813, 3.721e-5
-0.812, 3.730e-5
-0.811, 3.739e-5
-0.810, 3.745e-5
-0.809, 3.748e-5
-0.808, 3.754e-5
-0.807, 3.757e-5
-0.806, 3.757e-5
-0.805, 3.757e-5
-0.804, 3.757e-5
-0.803, 3.754e-5
-0.802, 3.748e-5
-0.801, 3.745e-5
-0.800, 3.736e-5
-0.799, 3.730e-5
-0.798, 3.721e-5
-0.797, 3.712e-5
-0.796, 3.702e-5
-0.795, 3.690e-5
-0.794, 3.675e-5
-0.793, 3.657e-5
-0.792, 3.648e-5
-0.791, 3.633e-5
-0.790, 3.614e-5
-0.789, 3.596e-5
-0.788, 3.584e-5
-0.787, 3.566e-5
-0.786, 3.544e-5
-0.785, 3.526e-5
-0.784, 3.508e-5
-0.783, 3.487e-5
-0.782, 3.468e-5
-0.781, 3.447e-5
-0.780, 3.426e-5
-0.779, 3.404e-5
-0.778, 3.380e-5
-0.777, 3.359e-5
-0.776, 3.337e-5
-0.775, 3.313e-5
-0.774, 3.292e-5
-0.773, 3.268e-5
-0.772, 3.243e-5
-0.771, 3.219e-5
-0.770, 3.198e-5
-0.769, 3.173e-5
-0.768, 3.152e-5
-0.767, 3.128e-5
-0.766, 3.103e-5
-0.765, 3.079e-5
-0.764, 3.052e-5
-0.763, 3.027e-5
-0.762, 3.006e-5
-0.761, 2.982e-5
-0.760, 2.957e-5
-0.759, 2.933e-5
-0.758, 2.909e-5
-0.757, 2.887e-5
-0.756, 2.863e-5
-0.755, 2.839e-5
-0.754, 2.817e-5
-0.753, 2.793e-5
-0.752, 2.772e-5
-0.751, 2.747e-5
-0.750, 2.726e-5
-0.749, 2.705e-5
-0.748, 2.681e-5
-0.747, 2.659e-5
-0.746, 2.635e-5
-0.745, 2.614e-5
-0.744, 2.595e-5
-0.743, 2.571e-5
-0.742, 2.550e-5
-0.741, 2.532e-5
-0.740, 2.510e-5
-0.739, 2.489e-5
-0.738, 2.468e-5
-0.737, 2.449e-5
-0.736, 2.431e-5
-0.735, 2.410e-5
-0.734, 2.392e-5
-0.733, 2.370e-5
-0.732, 2.352e-5
-0.731, 2.334e-5
-0.730, 2.316e-5
-0.729, 2.297e-5
-0.728, 2.279e-5
-0.727, 2.261e-5
-0.726, 2.243e-5
-0.725, 2.224e-5
-0.724, 2.209e-5
-0.723, 2.191e-5
-0.722, 2.173e-5
-0.721, 2.157e-5
-0.720, 2.142e-5
-0.719, 2.124e-5
-0.718, 2.109e-5
-0.717, 2.094e-5
-0.716, 2.078e-5
-0.715, 2.063e-5
-0.714, 2.048e-5
-0.713, 2.030e-5
-0.712, 2.018e-5
-0.711, 2.002e-5
-0.710, 1.987e-5
-0.709, 1.972e-5
-0.708, 1.957e-5
-0.707, 1.945e-5
-0.706, 1.929e-5
-0.705, 1.914e-5
-0.704, 1.902e-5
-0.703, 1.890e-5
-0.702, 1.875e-5
-0.701, 1.862e-5
-0.700, 1.850e-5
-0.699, 1.838e-5
-0.698, 1.826e-5
-0.697, 1.811e-5
-0.696, 1.799e-5
-0.695, 1.786e-5
-0.694, 1.774e-5
-0.693, 1.765e-5
-0.692, 1.750e-5
-0.691, 1.738e-5
-0.690, 1.729e-5
-0.689, 1.716e-5
-0.688, 1.704e-5
-0.687, 1.695e-5
-0.686, 1.686e-5
-0.685, 1.674e-5
-0.684, 1.662e-5
-0.683, 1.653e-5
-0.682, 1.640e-5
-0.681, 1.631e-5
-0.680, 1.619e-5
-0.679, 1.610e-5
-0.678, 1.601e-5
-0.677, 1.592e-5
-0.676, 1.580e-5
-0.675, 1.571e-5
-0.674, 1.561e-5
-0.673, 1.552e-5
-0.672, 1.543e-5
-0.671, 1.531e-5
-0.670, 1.525e-5
-0.669, 1.516e-5
-0.668, 1.507e-5
-0.667, 1.494e-5
-0.666, 1.488e-5
-0.665, 1.479e-5
-0.664, 1.470e-5
-0.663, 1.461e-5
-0.662, 1.452e-5
-0.661, 1.446e-5
-0.660, 1.437e-5
-0.659, 1.428e-5
-0.658, 1.418e-5
-0.657, 1.412e-5
-0.656, 1.406e-5
-0.655, 1.397e-5
-0.654, 1.388e-5
-0.653, 1.382e-5
-0.652, 1.376e-5
-0.651, 1.367e-5
-0.650, 1.358e-5
-0.649, 1.352e-5
-0.648, 1.345e-5
-0.647, 1.336e-5
-0.646, 1.330e-5
-0.645, 1.321e-5
-0.644, 1.315e-5
-0.643, 1.309e-5
-0.642, 1.303e-5
-0.641, 1.294e-5
-0.640, 1.288e-5
-0.639, 1.282e-5
-0.638, 1.276e-5
-0.637, 1.266e-5
-0.636, 1.263e-5
-0.635, 1.257e-5
-0.634, 1.248e-5
-0.633, 1.242e-5
-0.632, 1.236e-5
-0.631, 1.230e-5
-0.630, 1.224e-5
-0.629, 1.218e-5
-0.628, 1.212e-5
-0.627, 1.206e-5
-0.626, 1.199e-5
-0.625, 1.193e-5
-0.624, 1.187e-5
-0.623, 1.184e-5
-0.622, 1.178e-5
-0.621, 1.172e-5
-0.620, 1.166e-5
-0.619, 1.160e-5
-0.618, 1.154e-5
-0.617, 1.148e-5
-0.616, 1.145e-5
-0.615, 1.139e-5
-0.614, 1.133e-5
-0.613, 1.126e-5
-0.612, 1.123e-5
-0.611, 1.117e-5
-0.610, 1.114e-5
-0.609, 1.108e-5
-0.608, 1.102e-5
-0.607, 1.099e-5
-0.606, 1.093e-5
-0.605, 1.087e-5
-0.604, 1.084e-5
-0.603, 1.081e-5
-0.602, 1.075e-5
-0.601, 1.069e-5
-0.600, 1.066e-5
-0.599, 1.060e-5
-0.598, 1.057e-5
-0.597, 1.053e-5
-0.596, 1.047e-5
-0.595, 1.044e-5
-0.594, 1.041e-5
-0.593, 1.035e-5
-0.592, 1.029e-5
-0.591, 1.026e-5
-0.590, 1.023e-5
-0.589, 1.020e-5
-0.588, 1.014e-5
-0.587, 1.011e-5
-0.586, 1.008e-5
-0.585, 1.005e-5
-0.584, 9.987e-6
-0.583, 9.957e-6
-0.582, 9.927e-6
-0.581, 9.896e-6
-0.580, 9.866e-6
-0.579, 9.835e-6
-0.578, 9.805e-6
-0.577, 9.775e-6
-0.576, 9.744e-6
-0.575, 9.714e-6
-0.574, 9.653e-6
-0.573, 9.653e-6
-0.572, 9.622e-6
-0.571, 9.592e-6
-0.570, 9.562e-6
-0.569, 9.531e-6
-0.568, 9.501e-6
-0.567, 9.470e-6
-0.566, 9.440e-6
-0.565, 9.440e-6
-0.564, 9.410e-6
-0.563, 9.379e-6
-0.562, 9.349e-6
-0.561, 9.349e-6
-0.560, 9.318e-6
-0.559, 9.288e-6
-0.558, 9.258e-6
-0.557, 9.258e-6
-0.556, 9.258e-6
-0.555, 9.227e-6
-0.554, 9.227e-6
-0.553, 9.197e-6
-0.552, 9.197e-6
-0.551, 9.197e-6
-0.550, 9.166e-6
-0.549, 9.166e-6
-0.548, 9.166e-6
-0.547, 9.166e-6
-0.546, 9.166e-6
-0.545, 9.166e-6
-0.544, 9.197e-6
-0.543, 9.197e-6
-0.542, 9.197e-6
-0.541, 9.227e-6
-0.540, 9.258e-6
-0.539, 9.258e-6
-0.538, 9.288e-6
-0.537, 9.288e-6
-0.536, 9.349e-6
-0.535, 9.379e-6
-0.534, 9.410e-6
-0.533, 9.470e-6
-0.532, 9.501e-6
-0.531, 9.562e-6
-0.530, 9.622e-6
-0.529, 9.683e-6
-0.528, 9.744e-6
-0.527, 9.805e-6
-0.526, 9.896e-6
-0.525, 9.957e-6
-0.524, 1.005e-5
-0.523, 1.014e-5
-0.522, 1.023e-5
-0.521, 1.032e-5
-0.520, 1.044e-5
-0.519, 1.057e-5
-0.518, 1.066e-5
-0.517, 1.078e-5
-0.516, 1.090e-5
-0.515, 1.105e-5
-0.514, 1.117e-5
-0.513, 1.130e-5
-0.512, 1.145e-5
-0.511, 1.160e-5
-0.510, 1.172e-5
-0.509, 1.187e-5
-0.508, 1.203e-5
-0.507, 1.218e-5
-0.506, 1.236e-5
-0.505, 1.248e-5
-0.504, 1.266e-5
-0.503, 1.285e-5
-0.502, 1.303e-5
-0.501, 1.321e-5
-0.500, 1.318e-5
-0.501, 1.248e-5
-0.502, 1.193e-5
-0.503, 1.148e-5
-0.504, 1.108e-5
-0.505, 1.075e-5
-0.506, 1.041e-5
-0.507, 1.011e-5
-0.508, 9.835e-6
-0.509, 9.592e-6
-0.510, 9.349e-6
-0.511, 9.136e-6
-0.512, 8.893e-6
-0.513, 8.710e-6
-0.514, 8.528e-6
-0.515, 8.345e-6
-0.516, 8.163e-6
-0.517, 7.980e-6
-0.518, 7.828e-6
-0.519, 7.676e-6
-0.520, 7.524e-6
-0.521, 7.402e-6
-0.522, 7.250e-6
-0.523, 7.129e-6
-0.524, 7.007e-6
-0.525, 6.885e-6
-0.526, 6.764e-6
-0.527, 6.672e-6
-0.528, 6.551e-6
-0.529, 6.429e-6
-0.530, 6.338e-6
-0.531, 6.277e-6
-0.532, 6.186e-6
-0.533, 6.095e-6
-0.534, 6.003e-6
-0.535, 5.973e-6
-0.536, 5.882e-6
-0.537, 5.821e-6
-0.538, 5.760e-6
-0.539, 5.699e-6
-0.540, 5.638e-6
-0.541, 5.578e-6
-0.542, 5.547e-6
-0.543, 5.486e-6
-0.544, 5.456e-6
-0.545, 5.395e-6
-0.546, 5.365e-6
-0.547, 5.334e-6
-0.548, 5.304e-6
-0.549, 5.243e-6
-0.550, 5.213e-6
-0.551, 5.213e-6
-0.552, 5.182e-6
-0.553, 5.152e-6
-0.554, 5.121e-6
-0.555, 5.091e-6
-0.556, 5.091e-6
-0.557, 5.061e-6
-0.558, 5.030e-6
-0.559, 5.000e-6
-0.560, 5.000e-6
-0.561, 4.969e-6
-0.562, 4.939e-6
-0.563, 4.908e-6
-0.564, 4.908e-6
-0.565, 4.878e-6
-0.566, 4.878e-6
-0.567, 4.848e-6
-0.568, 4.848e-6
-0.569, 4.817e-6
-0.570, 4.787e-6
-0.571, 4.756e-6
-0.572, 4.756e-6
-0.573, 4.756e-6
-0.574, 4.726e-6
-0.575, 4.696e-6
-0.576, 4.696e-6
-0.577, 4.696e-6
-0.578, 4.665e-6
-0.579, 4.635e-6
-0.580, 4.635e-6
-0.581, 4.635e-6
-0.582, 4.604e-6
-0.583, 4.574e-6
-0.584, 4.574e-6
-0.585, 4.574e-6
-0.586, 4.544e-6
-0.587, 4.513e-6
-0.588, 4.513e-6
-0.589, 4.513e-6
-0.590, 4.483e-6
-0.591, 4.452e-6
-0.592, 4.452e-6
-0.593, 4.452e-6
-0.594, 4.422e-6
-0.595, 4.391e-6
-0.596, 4.391e-6
-0.597, 4.361e-6
-0.598, 4.361e-6
-0.599, 4.361e-6
-0.600, 4.331e-6
-0.601, 4.300e-6
-0.602, 4.331e-6
-0.603, 4.300e-6
-0.604, 4.270e-6
-0.605, 4.239e-6
-0.606, 4.239e-6
-0.607, 4.239e-6
-0.608, 4.209e-6
-0.609, 4.209e-6
-0.610, 4.209e-6
-0.611, 4.179e-6
-0.612, 4.148e-6
-0.613, 4.148e-6
-0.614, 4.148e-6
-0.615, 4.118e-6
-0.616, 4.118e-6
-0.617, 4.087e-6
-0.618, 4.087e-6
-0.619, 4.057e-6
-0.620, 4.057e-6
-0.621, 4.027e-6
-0.622, 4.027e-6
-0.623, 3.996e-6
-0.624, 3.996e-6
-0.625, 3.966e-6
-0.626, 3.966e-6
-0.627, 3.935e-6
-0.628, 3.935e-6
-0.629, 3.905e-6
-0.630, 3.905e-6
-0.631, 3.874e-6
-0.632, 3.874e-6
-0.633, 3.844e-6
-0.634, 3.844e-6
-0.635, 3.844e-6
-0.636, 3.814e-6
-0.637, 3.783e-6
-0.638, 3.783e-6
-0.639, 3.783e-6
-0.640, 3.753e-6
-0.641, 3.722e-6
-0.642, 3.722e-6
-0.643, 3.722e-6
-0.644, 3.692e-6
-0.645, 3.692e-6
-0.646, 3.662e-6
-0.647, 3.662e-6
-0.648, 3.631e-6
-0.649, 3.631e-6
-0.650, 3.601e-6
-0.651, 3.601e-6
-0.652, 3.570e-6
-0.653, 3.570e-6
-0.654, 3.540e-6
-0.655, 3.509e-6
-0.656, 3.509e-6
-0.657, 3.509e-6
-0.658, 3.479e-6
-0.659, 3.449e-6
-0.660, 3.449e-6
-0.661, 3.449e-6
-0.662, 3.418e-6
-0.663, 3.418e-6
-0.664, 3.388e-6
-0.665, 3.388e-6
-0.666, 3.357e-6
-0.667, 3.327e-6
-0.668, 3.327e-6
-0.669, 3.297e-6
-0.670, 3.297e-6
-0.671, 3.266e-6
-0.672, 3.266e-6
-0.673, 3.236e-6
-0.674, 3.205e-6
-0.675, 3.205e-6
-0.676, 3.175e-6
-0.677, 3.175e-6
-0.678, 3.145e-6
-0.679, 3.114e-6
-0.680, 3.114e-6
-0.681, 3.084e-6
-0.682, 3.084e-6
-0.683, 3.053e-6
-0.684, 3.023e-6
-0.685, 3.023e-6
-0.686, 2.992e-6
-0.687, 2.962e-6
-0.688, 2.962e-6
-0.689, 2.932e-6
-0.690, 2.932e-6
-0.691, 2.901e-6
-0.692, 2.871e-6
-0.693, 2.840e-6
-0.694, 2.840e-6
-0.695, 2.810e-6
-0.696, 2.780e-6
-0.697, 2.749e-6
-0.698, 2.749e-6
-0.699, 2.719e-6
-0.700, 2.688e-6
-0.701, 2.658e-6
-0.702, 2.658e-6
-0.703, 2.628e-6
-0.704, 2.597e-6
-0.705, 2.567e-6
-0.706, 2.536e-6
-0.707, 2.536e-6
-0.708, 2.475e-6
-0.709, 2.445e-6
-0.710, 2.445e-6
-0.711, 2.415e-6
-0.712, 2.384e-6
-0.713, 2.323e-6
-0.714, 2.323e-6
-0.715, 2.293e-6
-0.716, 2.263e-6
-0.717, 2.202e-6
-0.718, 2.202e-6
-0.719, 2.171e-6
-0.720, 2.141e-6
-0.721, 2.080e-6
-0.722, 2.050e-6
-0.723, 2.019e-6
-0.724, 1.989e-6
-0.725, 1.928e-6
-0.726, 1.898e-6
-0.727, 1.867e-6
-0.728, 1.837e-6
-0.729, 1.776e-6
-0.730, 1.746e-6
-0.731, 1.715e-6
-0.732, 1.654e-6
-0.733, 1.624e-6
-0.734, 1.563e-6
-0.735, 1.533e-6
-0.736, 1.472e-6
-0.737, 1.411e-6
-0.738, 1.381e-6
-0.739, 1.320e-6
-0.740, 1.259e-6
-0.741, 1.198e-6
-0.742, 1.137e-6
-0.743, 1.107e-6
-0.744, 1.046e-6
-0.745, 9.852e-7
-0.746, 9.244e-7
-0.747, 8.636e-7
-0.748, 8.027e-7
-0.749, 7.115e-7
-0.750, 6.507e-7
-0.751, 5.898e-7
-0.752, 5.290e-7
-0.753, 4.378e-7
-0.754, 3.465e-7
-0.755, 2.857e-7
-0.756, 1.945e-7
-0.757, 1.032e-7
-0.758, 1.200e-8
-0.759, -7.924e-8
-0.760, -1.401e-7
-0.761, -2.313e-7
-0.762, -3.530e-7
-0.763, -4.442e-7
-0.764, -5.354e-7
-0.765, -6.571e-7
-0.766, -7.483e-7
-0.767, -8.700e-7
-0.768, -9.916e-7
-0.769, -1.113e-6
-0.770, -1.235e-6
-0.771, -1.357e-6
-0.772, -1.478e-6
-0.773, -1.600e-6
-0.774, -1.752e-6
-0.775, -1.874e-6
-0.776, -2.026e-6
-0.777, -2.147e-6
-0.778, -2.330e-6
-0.779, -2.482e-6
-0.780, -2.634e-6
-0.781, -2.786e-6
-0.782, -2.968e-6
-0.783, -3.121e-6
-0.784, -3.303e-6
-0.785, -3.485e-6
-0.786, -3.668e-6
-0.787, -3.850e-6
-0.788, -4.063e-6
-0.789, -4.276e-6
-0.790, -4.459e-6
-0.791, -4.702e-6
-0.792, -4.915e-6
-0.793, -5.128e-6
-0.794, -5.341e-6
-0.795, -5.584e-6
-0.796, -5.797e-6
-0.797, -6.040e-6
-0.798, -6.314e-6
-0.799, -6.557e-6
-0.800, -6.831e-6
-0.801, -7.105e-6
-0.802, -7.378e-6
-0.803, -7.652e-6
-0.804, -7.926e-6
-0.805, -8.230e-6
-0.806, -8.534e-6
-0.807, -8.838e-6
-0.808, -9.173e-6
-0.809, -9.477e-6
-0.810, -9.781e-6
-0.811, -1.012e-5
-0.812, -1.048e-5
-0.813, -1.082e-5
-0.814, -1.115e-5
-0.815, -1.154e-5
-0.816, -1.188e-5
-0.817, -1.224e-5
-0.818, -1.264e-5
-0.819, -1.300e-5
-0.820, -1.334e-5
-0.821, -1.377e-5
-0.822, -1.416e-5
-0.823, -1.459e-5
-0.824, -1.501e-5
-0.825, -1.544e-5
-0.826, -1.586e-5
-0.827, -1.632e-5
-0.828, -1.675e-5
-0.829, -1.720e-5
-0.830, -1.763e-5
-0.831, -1.811e-5
-0.832, -1.860e-5
-0.833, -1.906e-5
-0.834, -1.954e-5
-0.835, -2.000e-5
-0.836, -2.052e-5
-0.837, -2.100e-5
-0.838, -2.146e-5
-0.839, -2.198e-5
-0.840, -2.249e-5
-0.841, -2.301e-5
-0.842, -2.350e-5
-0.843, -2.401e-5
-0.844, -2.453e-5
-0.845, -2.505e-5
-0.846, -2.553e-5
-0.847, -2.605e-5
-0.848, -2.663e-5
-0.849, -2.715e-5
-0.850, -2.769e-5
-0.851, -2.821e-5
-0.852, -2.876e-5
-0.853, -2.931e-5
-0.854, -2.982e-5
-0.855, -3.037e-5
-0.856, -3.092e-5
-0.857, -3.147e-5
-0.858, -3.198e-5
-0.859, -3.253e-5
-0.860, -3.305e-5
-0.861, -3.362e-5
-0.862, -3.414e-5
-0.863, -3.466e-5
-0.864, -3.518e-5
-0.865, -3.572e-5
-0.866, -3.624e-5
-0.867, -3.676e-5
-0.868, -3.724e-5
-0.869, -3.779e-5
-0.870, -3.831e-5
-0.871, -3.883e-5
-0.872, -3.931e-5
-0.873, -3.983e-5
-0.874, -4.032e-5
-0.875, -4.077e-5
-0.876, -4.123e-5
-0.877, -4.171e-5
-0.878, -4.220e-5
-0.879, -4.266e-5
-0.880, -4.308e-5
-0.881, -4.354e-5
-0.882, -4.400e-5
-0.883, -4.442e-5
-0.884, -4.482e-5
-0.885, -4.524e-5
-0.886, -4.567e-5
-0.887, -4.606e-5
-0.888, -4.646e-5
-0.889, -4.685e-5
-0.890, -4.722e-5
-0.891, -4.758e-5
-0.892, -4.792e-5
-0.893, -4.828e-5
-0.894, -4.862e-5
-0.895, -4.898e-5
-0.896, -4.926e-5
-0.897, -4.953e-5
-0.898, -4.990e-5
-0.899, -5.020e-5
-0.900, -5.044e-5
-0.901, -5.075e-5
-0.902, -5.105e-5
-0.903, -5.129e-5
-0.904, -5.154e-5
-0.905, -5.178e-5
-0.906, -5.205e-5
-0.907, -5.230e-5
-0.908, -5.251e-5
-0.909, -5.272e-5
-0.910, -5.294e-5
-0.911, -5.315e-5
-0.912, -5.330e-5
-0.913, -5.348e-5
-0.914, -5.367e-5
-0.915, -5.385e-5
-0.916, -5.397e-5
-0.917, -5.415e-5
-0.918, -5.428e-5
-0.919, -5.443e-5
-0.920, -5.455e-5
-0.921, -5.467e-5
-0.922, -5.482e-5
-0.923, -5.491e-5
-0.924, -5.504e-5
-0.925, -5.510e-5
-0.926, -5.519e-5
-0.927, -5.528e-5
-0.928, -5.537e-5
-0.929, -5.543e-5
-0.930, -5.549e-5
-0.931, -5.555e-5
-0.932, -5.561e-5
-0.933, -5.564e-5
-0.934, -5.567e-5
-0.935, -5.573e-5
-0.936, -5.577e-5
-0.937, -5.577e-5
-0.938, -5.580e-5
-0.939, -5.583e-5
-0.940, -5.583e-5
-0.941, -5.583e-5
-0.942, -5.583e-5
-0.943, -5.583e-5
-0.944, -5.583e-5
-0.945, -5.583e-5
-0.946, -5.580e-5
-0.947, -5.577e-5
-0.948, -5.573e-5
-0.949, -5.573e-5
-0.950, -5.570e-5
-0.951, -5.564e-5
-0.952, -5.564e-5
-0.953, -5.558e-5
-0.954, -5.555e-5
-0.955, -5.549e-5
-0.956, -5.546e-5
-0.957, -5.540e-5
-0.958, -5.537e-5
-0.959, -5.531e-5
-0.960, -5.525e-5
-0.961, -5.519e-5
-0.962, -5.516e-5
-0.963, -5.510e-5
-0.964, -5.501e-5
-0.965, -5.494e-5
-0.966, -5.488e-5
-0.967, -5.479e-5
-0.968, -5.473e-5
-0.969, -5.467e-5
-0.970, -5.458e-5
-0.971, -5.452e-5
-0.972, -5.440e-5
-0.973, -5.437e-5
-0.974, -5.428e-5
-0.975, -5.418e-5
-0.976, -5.409e-5
-0.977, -5.400e-5
-0.978, -5.394e-5
-0.979, -5.385e-5
-0.980, -5.373e-5
-0.981, -5.364e-5
-0.982, -5.358e-5
-0.983, -5.348e-5
-0.984, -5.336e-5
-0.985, -5.327e-5
-0.986, -5.318e-5
-0.987, -5.309e-5
-0.988, -5.300e-5
-0.989, -5.288e-5
-0.990, -5.278e-5
-0.991, -5.269e-5
-0.992, -5.260e-5
-0.993, -5.248e-5
-0.994, -5.239e-5
-0.995, -5.230e-5
-0.996, -5.221e-5
-0.997, -5.209e-5
-0.998, -5.196e-5
-0.999, -5.187e-5
-1.000, -5.178e-5
-1.001, -5.166e-5
-1.002, -5.157e-5
-1.003, -5.148e-5
-1.004, -5.136e-5
-1.005, -5.126e-5
-1.006, -5.114e-5
-1.007, -5.105e-5
-1.008, -5.096e-5
-1.009, -5.084e-5
-1.010, -5.075e-5
-1.011, -5.063e-5
-1.012, -5.053e-5
-1.013, -5.044e-5
-1.014, -5.032e-5
-1.015, -5.023e-5
-1.016, -5.011e-5
-1.017, -5.002e-5
-1.018, -4.990e-5
-1.019, -4.980e-5
-1.020, -4.971e-5
-1.021, -4.962e-5
-1.022, -4.950e-5
-1.023, -4.941e-5
-1.024, -4.932e-5
-1.025, -4.923e-5
-1.026, -4.910e-5
-1.027, -4.901e-5
-1.028, -4.889e-5
-1.029, -4.880e-5
-1.030, -4.871e-5
-1.031, -4.859e-5
-1.032, -4.850e-5
-1.033, -4.841e-5
-1.034, -4.831e-5
-1.035, -4.822e-5
-1.036, -4.810e-5
-1.037, -4.804e-5
-1.038, -4.792e-5
-1.039, -4.783e-5
-1.040, -4.774e-5
-1.041, -4.761e-5
-1.042, -4.755e-5
-1.043, -4.743e-5
-1.044, -4.734e-5
-1.045, -4.725e-5
-1.046, -4.716e-5
-1.047, -4.707e-5
-1.048, -4.698e-5
-1.049, -4.688e-5
-1.050, -4.679e-5
-1.051, -4.670e-5
-1.052, -4.661e-5
-1.053, -4.652e-5
-1.054, -4.643e-5
-1.055, -4.634e-5
-1.056, -4.625e-5
-1.057, -4.615e-5
-1.058, -4.606e-5
-1.059, -4.600e-5
-1.060, -4.588e-5
-1.061, -4.582e-5
-1.062, -4.573e-5
-1.063, -4.564e-5
-1.064, -4.555e-5
-1.065, -4.546e-5
-1.066, -4.539e-5
-1.067, -4.530e-5
-1.068, -4.521e-5
-1.069, -4.512e-5
-1.070, -4.506e-5
-1.071, -4.497e-5
-1.072, -4.491e-5
-1.073, -4.482e-5
-1.074, -4.473e-5
-1.075, -4.466e-5
-1.076, -4.457e-5
-1.077, -4.451e-5
-1.078, -4.442e-5
-1.079, -4.436e-5
-1.080, -4.427e-5
-1.081, -4.418e-5
-1.082, -4.412e-5
-1.083, -4.406e-5
-1.084, -4.397e-5
-1.085, -4.387e-5
-1.086, -4.381e-5
-1.087, -4.372e-5
-1.088, -4.366e-5
-1.089, -4.360e-5
-1.090, -4.351e-5
-1.091, -4.345e-5
-1.092, -4.339e-5
-1.093, -4.330e-5
-1.094, -4.324e-5
-1.095, -4.314e-5
-1.096, -4.308e-5
-1.097, -4.302e-5
-1.098, -4.296e-5
-1.099, -4.287e-5
-1.100, -4.281e-5
-1.101, -4.275e-5
-1.102, -4.266e-5
-1.103, -4.260e-5
-1.104, -4.254e-5
-1.105, -4.247e-5
-1.106, -4.241e-5
-1.107, -4.232e-5
-1.108, -4.229e-5
-1.109, -4.223e-5
-1.110, -4.214e-5
-1.111, -4.208e-5
-1.112, -4.202e-5
-1.113, -4.196e-5
-1.114, -4.190e-5
-1.115, -4.184e-5
-1.116, -4.178e-5
-1.117, -4.171e-5
-1.118, -4.165e-5
-1.119, -4.159e-5
-1.120, -4.153e-5
-1.121, -4.147e-5
-1.122, -4.141e-5
-1.123, -4.135e-5
-1.124, -4.129e-5
-1.125, -4.123e-5
-1.126, -4.120e-5
-1.127, -4.111e-5
-1.128, -4.105e-5
-1.129, -4.102e-5
-1.130, -4.095e-5
-1.131, -4.089e-5
-1.132, -4.083e-5
-1.133, -4.077e-5
-1.134, -4.074e-5
-1.135, -4.068e-5
-1.136, -4.062e-5
-1.137, -4.056e-5
-1.138, -4.053e-5
-1.139, -4.047e-5
-1.140, -4.041e-5
-1.141, -4.035e-5
-1.142, -4.032e-5
-1.143, -4.025e-5
-1.144, -4.019e-5
-1.145, -4.013e-5
-1.146, -4.010e-5
-1.147, -4.004e-5
-1.148, -3.998e-5
-1.149, -3.992e-5
-1.150, -3.989e-5
-1.151, -3.986e-5
-1.152, -3.980e-5
-1.153, -3.974e-5
-1.154, -3.971e-5
-1.155, -3.965e-5
-1.156, -3.959e-5
-1.157, -3.956e-5
-1.158, -3.952e-5
-1.159, -3.946e-5
-1.160, -3.940e-5
-1.161, -3.937e-5
-1.162, -3.931e-5
-1.163, -3.928e-5
-1.164, -3.922e-5
-1.165, -3.919e-5
-1.166, -3.913e-5
-1.167, -3.910e-5
-1.168, -3.907e-5
-1.169, -3.901e-5
-1.170, -3.898e-5
-1.171, -3.892e-5
-1.172, -3.889e-5
-1.173, -3.883e-5
-1.174, -3.879e-5
-1.175, -3.876e-5
-1.176, -3.870e-5
-1.177, -3.867e-5
-1.178, -3.861e-5
-1.179, -3.858e-5
-1.180, -3.855e-5
-1.181, -3.849e-5
-1.182, -3.846e-5
-1.183, -3.843e-5
-1.184, -3.837e-5
-1.185, -3.834e-5
-1.186, -3.831e-5
-1.187, -3.825e-5
-1.188, -3.822e-5
-1.189, -3.819e-5
-1.190, -3.813e-5
-1.191, -3.810e-5
-1.192, -3.807e-5
-1.193, -3.803e-5
-1.194, -3.797e-5
-1.195, -3.794e-5
-1.196, -3.791e-5
-1.197, -3.788e-5
-1.198, -3.782e-5
-1.199, -3.782e-5
-1.200, -3.773e-5
-1.199, -3.758e-5
-1.198, -3.746e-5
-1.197, -3.737e-5
-1.196, -3.730e-5
-1.195, -3.721e-5
-1.194, -3.712e-5
-1.193, -3.706e-5
-1.192, -3.700e-5
-1.191, -3.694e-5
-1.190, -3.685e-5
-1.189, -3.679e-5
-1.188, -3.673e-5
-1.187, -3.667e-5
-1.186, -3.661e-5
-1.185, -3.654e-5
-1.184, -3.648e-5
-1.183, -3.642e-5
-1.182, -3.636e-5
-1.181, -3.630e-5
-1.180, -3.624e-5
-1.179, -3.621e-5
-1.178, -3.615e-5
-1.177, -3.606e-5
-1.176, -3.603e-5
-1.175, -3.597e-5
-1.174, -3.591e-5
-1.173, -3.584e-5
-1.172, -3.578e-5
-1.171, -3.575e-5
-1.170, -3.569e-5
-1.169, -3.563e-5
-1.168, -3.557e-5
-1.167, -3.554e-5
-1.166, -3.548e-5
-1.165, -3.542e-5
-1.164, -3.539e-5
-1.163, -3.533e-5
-1.162, -3.530e-5
-1.161, -3.524e-5
-1.160, -3.518e-5
-1.159, -3.515e-5
-1.158, -3.508e-5
-1.157, -3.505e-5
-1.156, -3.499e-5
-1.155, -3.493e-5
-1.154, -3.490e-5
-1.153, -3.484e-5
-1.152, -3.478e-5
-1.151, -3.475e-5
-1.150, -3.469e-5
-1.149, -3.466e-5
-1.148, -3.460e-5
-1.147, -3.454e-5
-1.146, -3.451e-5
-1.145, -3.448e-5
-1.144, -3.442e-5
-1.143, -3.435e-5
-1.142, -3.432e-5
-1.141, -3.429e-5
-1.140, -3.423e-5
-1.139, -3.420e-5
-1.138, -3.417e-5
-1.137, -3.411e-5
-1.136, -3.405e-5
-1.135, -3.402e-5
-1.134, -3.399e-5
-1.133, -3.393e-5
-1.132, -3.390e-5
-1.131, -3.384e-5
-1.130, -3.381e-5
-1.129, -3.375e-5
-1.128, -3.372e-5
-1.127, -3.366e-5
-1.126, -3.362e-5
-1.125, -3.359e-5
-1.124, -3.353e-5
-1.123, -3.350e-5
-1.122, -3.347e-5
-1.121, -3.341e-5
-1.120, -3.338e-5
-1.119, -3.332e-5
-1.118, -3.329e-5
-1.117, -3.326e-5
-1.116, -3.323e-5
-1.115, -3.317e-5
-1.114, -3.311e-5
-1.113, -3.308e-5
-1.112, -3.305e-5
-1.111, -3.299e-5
-1.110, -3.296e-5
-1.109, -3.293e-5
-1.108, -3.289e-5
-1.107, -3.283e-5
-1.106, -3.280e-5
-1.105, -3.274e-5
-1.104, -3.274e-5
-1.103, -3.268e-5
-1.102, -3.265e-5
-1.101, -3.259e-5
-1.100, -3.256e-5
-1.099, -3.253e-5
-1.098, -3.247e-5
-1.097, -3.244e-5
-1.096, -3.241e-5
-1.095, -3.238e-5
-1.094, -3.232e-5
-1.093, -3.226e-5
-1.092, -3.226e-5
-1.091, -3.220e-5
-1.090, -3.216e-5
-1.089, -3.210e-5
-1.088, -3.207e-5
-1.087, -3.204e-5
-1.086, -3.198e-5
-1.085, -3.195e-5
-1.084, -3.192e-5
-1.083, -3.189e-5
-1.082, -3.183e-5
-1.081, -3.180e-5
-1.080, -3.177e-5
-1.079, -3.174e-5
-1.078, -3.168e-5
-1.077, -3.165e-5
-1.076, -3.159e-5
-1.075, -3.156e-5
-1.074, -3.153e-5
-1.073, -3.150e-5
-1.072, -3.143e-5
-1.071, -3.140e-5
-1.070, -3.137e-5
-1.069, -3.131e-5
-1.068, -3.128e-5
-1.067, -3.125e-5
-1.066, -3.119e-5
-1.065, -3.116e-5
-1.064, -3.110e-5
-1.063, -3.107e-5
-1.062, -3.104e-5
-1.061, -3.098e-5
-1.060, -3.092e-5
-1.059, -3.092e-5
-1.058, -3.086e-5
-1.057, -3.083e-5
-1.056, -3.077e-5
-1.055, -3.074e-5
-1.054, -3.071e-5
-1.053, -3.064e-5
-1.052, -3.058e-5
-1.051, -3.055e-5
-1.050, -3.052e-5
-1.049, -3.049e-5
-1.048, -3.043e-5
-1.047, -3.040e-5
-1.046, -3.034e-5
-1.045, -3.031e-5
-1.044, -3.025e-5
-1.043, -3.022e-5
-1.042, -3.016e-5
-1.041, -3.013e-5
-1.040, -3.007e-5
-1.039, -3.004e-5
-1.038, -2.998e-5
-1.037, -2.994e-5
-1.036, -2.988e-5
-1.035, -2.985e-5
-1.034, -2.979e-5
-1.033, -2.976e-5
-1.032, -2.970e-5
-1.031, -2.964e-5
-1.030, -2.961e-5
-1.029, -2.955e-5
-1.028, -2.952e-5
-1.027, -2.943e-5
-1.026, -2.940e-5
-1.025, -2.937e-5
-1.024, -2.931e-5
-1.023, -2.925e-5
-1.022, -2.918e-5
-1.021, -2.912e-5
-1.020, -2.909e-5
-1.019, -2.903e-5
-1.018, -2.897e-5
-1.017, -2.891e-5
-1.016, -2.888e-5
-1.015, -2.879e-5
-1.014, -2.876e-5
-1.013, -2.870e-5
-1.012, -2.864e-5
-1.011, -2.858e-5
-1.010, -2.852e-5
-1.009, -2.845e-5
-1.008, -2.839e-5
-1.007, -2.833e-5
-1.006, -2.824e-5
-1.005, -2.818e-5
-1.004, -2.815e-5
-1.003, -2.806e-5
-1.002, -2.800e-5
-1.001, -2.791e-5
-1.000, -2.785e-5
-0.999, -2.779e-5
-0.998, -2.772e-5
-0.997, -2.763e-5
-0.996, -2.757e-5
-0.995, -2.751e-5
-0.994, -2.742e-5
-0.993, -2.733e-5
-0.992, -2.727e-5
-0.991, -2.718e-5
-0.990, -2.709e-5
-0.989, -2.699e-5
-0.988, -2.693e-5
-0.987, -2.684e-5
-0.986, -2.675e-5
-0.985, -2.666e-5
-0.984, -2.657e-5
-0.983, -2.648e-5
-0.982, -2.639e-5
-0.981, -2.630e-5
-0.980, -2.620e-5
-0.979, -2.608e-5
-0.978, -2.599e-5
-0.977, -2.590e-5
-0.976, -2.578e-5
-0.975, -2.569e-5
-0.974, -2.557e-5
-0.973, -2.544e-5
-0.972, -2.532e-5
-0.971, -2.520e-5
-0.970, -2.511e-5
-0.969, -2.499e-5
-0.968, -2.487e-5
-0.967, -2.474e-5
-0.966, -2.462e-5
-0.965, -2.447e-5
-0.964, -2.435e-5
-0.963, -2.420e-5
-0.962, -2.408e-5
-0.961, -2.392e-5
-0.960, -2.377e-5
-0.959, -2.362e-5
-0.958, -2.347e-5
-0.957, -2.331e-5
-0.956, -2.316e-5
-0.955, -2.298e-5
-0.954, -2.283e-5
-0.953, -2.268e-5
-0.952, -2.249e-5
-0.951, -2.231e-5
-0.950, -2.213e-5
-0.949, -2.195e-5
-0.948, -2.176e-5
-0.947, -2.158e-5
-0.946, -2.140e-5
-0.945, -2.122e-5
-0.944, -2.100e-5
-0.943, -2.079e-5
-0.942, -2.058e-5
-0.941, -2.036e-5
-0.940, -2.012e-5
-0.939, -1.991e-5
-0.938, -1.967e-5
-0.937, -1.945e-5
-0.936, -1.918e-5
-0.935, -1.897e-5
-0.934, -1.869e-5
-0.933, -1.845e-5
-0.932, -1.817e-5
-0.931, -1.790e-5
-0.930, -1.766e-5
-0.929, -1.738e-5
-0.928, -1.708e-5
-0.927, -1.681e-5
-0.926, -1.650e-5
-0.925, -1.620e-5
-0.924, -1.589e-5
-0.923, -1.559e-5
-0.922, -1.526e-5
-0.921, -1.492e-5
-0.920, -1.459e-5
-0.919, -1.425e-5
-0.918, -1.392e-5
-0.917, -1.355e-5
-0.916, -1.322e-5
-0.915, -1.285e-5
-0.914, -1.249e-5
-0.913, -1.212e-5
-0.912, -1.173e-5
-0.911, -1.133e-5
-0.910, -1.094e-5
-0.909, -1.054e-5
-0.908, -1.012e-5
-0.907, -9.690e-6
-0.906, -9.294e-6
-0.905, -8.869e-6
-0.904, -8.412e-6
-0.903, -7.987e-6
-0.902, -7.561e-6
-0.901, -7.105e-6
-0.900, -6.618e-6
-0.899, -6.131e-6
-0.898, -5.675e-6
-0.897, -5.219e-6
-0.896, -4.732e-6
-0.895, -4.246e-6
-0.894, -3.729e-6
-0.893, -3.242e-6
-0.892, -2.725e-6
-0.891, -2.178e-6
-0.890, -1.661e-6
-0.889, -1.174e-6
-0.888, -6.267e-7
-0.887, -7.924e-8
-0.886, 4.682e-7
-0.885, 1.016e-6
-0.884, 1.593e-6
-0.883, 2.171e-6
-0.882, 2.719e-6
-0.881, 3.266e-6
-0.880, 3.844e-6
-0.879, 4.422e-6
-0.878, 5.030e-6
-0.877, 5.608e-6
-0.876, 6.155e-6
-0.875, 6.794e-6
-0.874, 7.372e-6
-0.873, 7.980e-6
-0.872, 8.558e-6
-0.871, 9.166e-6
-0.870, 9.866e-6
-0.869, 1.041e-5
-0.868, 1.102e-5
-0.867, 1.160e-5
-0.866, 1.221e-5
-0.865, 1.282e-5
-0.864, 1.336e-5
-0.863, 1.397e-5
-0.862, 1.458e-5
-0.861, 1.516e-5
-0.860, 1.574e-5
-0.859, 1.634e-5
-0.858, 1.695e-5
-0.857, 1.753e-5
-0.856, 1.808e-5
-0.855, 1.866e-5
-0.854, 1.923e-5
-0.853, 1.981e-5
-0.852, 2.033e-5
-0.851, 2.084e-5
-0.850, 2.142e-5
-0.849, 2.197e-5
-0.848, 2.249e-5
-0.847, 2.297e-5
-0.846, 2.349e-5
-0.845, 2.398e-5
-0.844, 2.443e-5
-0.843, 2.489e-5
-0.842, 2.538e-5
-0.841, 2.586e-5
-0.840, 2.632e-5
-0.839, 2.674e-5
-0.838, 2.717e-5
-0.837, 2.760e-5
-0.836, 2.802e-5
-0.835, 2.839e-5
-0.834, 2.875e-5
-0.833, 2.918e-5
-0.832, 2.951e-5
-0.831, 2.985e-5
-0.830, 3.018e-5
-0.829, 3.049e-5
-0.828, 3.079e-5
-0.827, 3.109e-5
-0.826, 3.134e-5
-0.825, 3.161e-5
-0.824, 3.188e-5
-0.823, 3.210e-5
-0.822, 3.228e-5
-0.821, 3.249e-5
-0.820, 3.274e-5
-0.819, 3.280e-5
-0.818, 3.295e-5
-0.817, 3.310e-5
-0.816, 3.325e-5
-0.815, 3.337e-5
-0.814, 3.350e-5
-0.813, 3.359e-5
-0.812, 3.368e-5
-0.811, 3.377e-5
-0.810, 3.380e-5
-0.809, 3.383e-5
-0.808, 3.389e-5
-0.807, 3.392e-5
-0.806, 3.392e-5
-0.805, 3.392e-5
-0.804, 3.392e-5
-0.803, 3.389e-5
-0.802, 3.383e-5
-0.801, 3.377e-5
-0.800, 3.371e-5
-0.799, 3.365e-5
-0.798, 3.359e-5
-0.797, 3.350e-5
-0.796, 3.341e-5
-0.795, 3.331e-5
-0.794, 3.319e-5
-0.793, 3.301e-5
-0.792, 3.292e-5
-0.791, 3.280e-5
-0.790, 3.265e-5
-0.789, 3.246e-5
-0.788, 3.234e-5
-0.787, 3.219e-5
-0.786, 3.201e-5
-0.785, 3.185e-5
-0.784, 3.164e-5
-0.783, 3.149e-5
-0.782, 3.131e-5
-0.781, 3.109e-5
-0.780, 3.091e-5
-0.779, 3.073e-5
-0.778, 3.052e-5
-0.777, 3.030e-5
-0.776, 3.012e-5
-0.775, 2.991e-5
-0.774, 2.970e-5
-0.773, 2.948e-5
-0.772, 2.927e-5
-0.771, 2.906e-5
-0.770, 2.884e-5
-0.769, 2.863e-5
-0.768, 2.842e-5
-0.767, 2.820e-5
-0.766, 2.799e-5
-0.765, 2.778e-5
-0.764, 2.757e-5
-0.763, 2.735e-5
-0.762, 2.711e-5
-0.761, 2.690e-5
-0.760, 2.668e-5
-0.759, 2.647e-5
-0.758, 2.626e-5
-0.757, 2.605e-5
-0.756, 2.583e-5
-0.755, 2.562e-5
-0.754, 2.541e-5
-0.753, 2.519e-5
-0.752, 2.501e-5
-0.751, 2.480e-5
-0.750, 2.459e-5
-0.749, 2.437e-5
-0.748, 2.419e-5
-0.747, 2.401e-5
-0.746, 2.379e-5
-0.745, 2.361e-5
-0.744, 2.340e-5
-0.743, 2.322e-5
-0.742, 2.300e-5
-0.741, 2.282e-5
-0.740, 2.264e-5
-0.739, 2.246e-5
-0.738, 2.227e-5
-0.737, 2.209e-5
-0.736, 2.191e-5
-0.735, 2.176e-5
-0.734, 2.157e-5
-0.733, 2.139e-5
-0.732, 2.121e-5
-0.731, 2.106e-5
-0.730, 2.088e-5
-0.729, 2.072e-5
-0.728, 2.054e-5
-0.727, 2.039e-5
-0.726, 2.024e-5
-0.725, 2.008e-5
-0.724, 1.990e-5
-0.723, 1.978e-5
-0.722, 1.960e-5
-0.721, 1.948e-5
-0.720, 1.929e-5
-0.719, 1.917e-5
-0.718, 1.902e-5
-0.717, 1.887e-5
-0.716, 1.875e-5
-0.715, 1.859e-5
-0.714, 1.847e-5
-0.713, 1.832e-5
-0.712, 1.820e-5
-0.711, 1.805e-5
-0.710, 1.793e-5
-0.709, 1.780e-5
-0.708, 1.765e-5
-0.707, 1.753e-5
-0.706, 1.741e-5
-0.705, 1.729e-5
-0.704, 1.716e-5
-0.703, 1.704e-5
-0.702, 1.692e-5
-0.701, 1.683e-5
-0.700, 1.668e-5
-0.699, 1.659e-5
-0.698, 1.647e-5
-0.697, 1.637e-5
-0.696, 1.625e-5
-0.695, 1.613e-5
-0.694, 1.604e-5
-0.693, 1.592e-5
-0.692, 1.583e-5
-0.691, 1.571e-5
-0.690, 1.558e-5
-0.689, 1.549e-5
-0.688, 1.540e-5
-0.687, 1.528e-5
-0.686, 1.519e-5
-0.685, 1.510e-5
-0.684, 1.501e-5
-0.683, 1.491e-5
-0.682, 1.479e-5
-0.681, 1.473e-5
-0.680, 1.461e-5
-0.679, 1.452e-5
-0.678, 1.443e-5
-0.677, 1.437e-5
-0.676, 1.428e-5
-0.675, 1.418e-5
-0.674, 1.409e-5
-0.673, 1.400e-5
-0.672, 1.391e-5
-0.671, 1.382e-5
-0.670, 1.376e-5
-0.669, 1.370e-5
-0.668, 1.361e-5
-0.667, 1.352e-5
-0.666, 1.342e-5
-0.665, 1.336e-5
-0.664, 1.327e-5
-0.663, 1.321e-5
-0.662, 1.312e-5
-0.661, 1.306e-5
-0.660, 1.300e-5
-0.659, 1.291e-5
-0.658, 1.282e-5
-0.657, 1.276e-5
-0.656, 1.269e-5
-0.655, 1.260e-5
-0.654, 1.254e-5
-0.653, 1.248e-5
-0.652, 1.242e-5
-0.651, 1.233e-5
-0.650, 1.227e-5
-0.649, 1.221e-5
-0.648, 1.215e-5
-0.647, 1.209e-5
-0.646, 1.199e-5
-0.645, 1.193e-5
-0.644, 1.187e-5
-0.643, 1.181e-5
-0.642, 1.175e-5
-0.641, 1.169e-5
-0.640, 1.163e-5
-0.639, 1.157e-5
-0.638, 1.151e-5
-0.637, 1.145e-5
-0.636, 1.139e-5
-0.635, 1.133e-5
-0.634, 1.126e-5
-0.633, 1.120e-5
-0.632, 1.117e-5
-0.631, 1.111e-5
-0.630, 1.105e-5
-0.629, 1.099e-5
-0.628, 1.096e-5
-0.627, 1.090e-5
-0.626, 1.084e-5
-0.625, 1.078e-5
-0.624, 1.072e-5
-0.623, 1.069e-5
-0.622, 1.063e-5
-0.621, 1.057e-5
-0.620, 1.053e-5
-0.619, 1.047e-5
-0.618, 1.044e-5
-0.617, 1.038e-5
-0.616, 1.032e-5
-0.615, 1.029e-5
-0.614, 1.023e-5
-0.613, 1.020e-5
-0.612, 1.014e-5
-0.611, 1.008e-5
-0.610, 1.005e-5
-0.609, 1.002e-5
-0.608, 9.957e-6
-0.607, 9.927e-6
-0.606, 9.896e-6
-0.605, 9.835e-6
-0.604, 9.775e-6
-0.603, 9.744e-6
-0.602, 9.714e-6
-0.601, 9.683e-6
-0.600, 9.622e-6
-0.599, 9.592e-6
-0.598, 9.562e-6
-0.597, 9.531e-6
-0.596, 9.470e-6
-0.595, 9.440e-6
-0.594, 9.410e-6
-0.593, 9.379e-6
-0.592, 9.318e-6
-0.591, 9.288e-6
-0.590, 9.258e-6
-0.589, 9.227e-6
-0.588, 9.197e-6
-0.587, 9.136e-6
-0.586, 9.105e-6
-0.585, 9.105e-6
-0.584, 9.075e-6
-0.583, 9.014e-6
-0.582, 8.984e-6
-0.581, 8.953e-6
-0.580, 8.923e-6
-0.579, 8.893e-6
-0.578, 8.862e-6
-0.577, 8.862e-6
-0.576, 8.832e-6
-0.575, 8.771e-6
-0.574, 8.771e-6
-0.573, 8.741e-6
-0.572, 8.710e-6
-0.571, 8.680e-6
-0.570, 8.649e-6
-0.569, 8.619e-6
-0.568, 8.619e-6
-0.567, 8.619e-6
-0.566, 8.558e-6
-0.565, 8.558e-6
-0.564, 8.528e-6
-0.563, 8.528e-6
-0.562, 8.497e-6
-0.561, 8.497e-6
-0.560, 8.467e-6
-0.559, 8.467e-6
-0.558, 8.436e-6
-0.557, 8.436e-6
-0.556, 8.436e-6
-0.555, 8.406e-6
-0.554, 8.406e-6
-0.553, 8.406e-6
-0.552, 8.406e-6
-0.551, 8.406e-6
-0.550, 8.376e-6
-0.549, 8.376e-6
-0.548, 8.406e-6
-0.547, 8.406e-6
-0.546, 8.406e-6
-0.545, 8.406e-6
-0.544, 8.436e-6
-0.543, 8.467e-6
-0.542, 8.467e-6
-0.541, 8.497e-6
-0.540, 8.528e-6
-0.539, 8.558e-6
-0.538, 8.588e-6
-0.537, 8.619e-6
-0.536, 8.649e-6
-0.535, 8.710e-6
-0.534, 8.741e-6
-0.533, 8.801e-6
-0.532, 8.862e-6
-0.531, 8.923e-6
-0.530, 8.984e-6
-0.529, 9.045e-6
-0.528, 9.105e-6
-0.527, 9.197e-6
-0.526, 9.288e-6
-0.525, 9.379e-6
-0.524, 9.470e-6
-0.523, 9.592e-6
-0.522, 9.683e-6
-0.521, 9.775e-6
-0.520, 9.866e-6
-0.519, 1.002e-5
-0.518, 1.011e-5
-0.517, 1.023e-5
-0.516, 1.035e-5
-0.515, 1.050e-5
-0.514, 1.063e-5
-0.513, 1.075e-5
-0.512, 1.090e-5
-0.511, 1.105e-5
-0.510, 1.120e-5
-0.509, 1.136e-5
-0.508, 1.151e-5
-0.507, 1.166e-5
-0.506, 1.184e-5
-0.505, 1.199e-5
-0.504, 1.215e-5
-0.503, 1.233e-5
-0.502, 1.251e-5
-0.501, 1.269e-5
-0.500, 1.269e-5
-0.501, 1.199e-5
-0.502, 1.145e-5
-0.503, 1.099e-5
-0.504, 1.060e-5
-0.505, 1.026e-5
-0.506, 9.927e-6
-0.507, 9.653e-6
-0.508, 9.379e-6
-0.509, 9.105e-6
-0.510, 8.893e-6
-0.511, 8.649e-6
-0.512, 8.436e-6
-0.513, 8.223e-6
-0.514, 8.041e-6
-0.515, 7.859e-6
-0.516, 7.676e-6
-0.517, 7.524e-6
-0.518, 7.372e-6
-0.519, 7.220e-6
-0.520, 7.068e-6
-0.521, 6.916e-6
-0.522, 6.794e-6
-0.523, 6.672e-6
-0.524, 6.551e-6
-0.525, 6.399e-6
-0.526, 6.307e-6
-0.527, 6.186e-6
-0.528, 6.095e-6
-0.529, 5.973e-6
-0.530, 5.882e-6
-0.531, 5.790e-6
-0.532, 5.699e-6
-0.533, 5.608e-6
-0.534, 5.517e-6
-0.535, 5.456e-6
-0.536, 5.395e-6
-0.537, 5.304e-6
-0.538, 5.243e-6
-0.539, 5.182e-6
-0.540, 5.152e-6
-0.541, 5.091e-6
-0.542, 5.000e-6
-0.543, 4.969e-6
-0.544, 4.939e-6
-0.545, 4.878e-6
-0.546, 4.817e-6
-0.547, 4.787e-6
-0.548, 4.756e-6
-0.549, 4.726e-6
-0.550, 4.665e-6
-0.551, 4.635e-6
-0.552, 4.604e-6
-0.553, 4.604e-6
-0.554, 4.574e-6
-0.555, 4.544e-6
-0.556, 4.513e-6
-0.557, 4.513e-6
-0.558, 4.483e-6
-0.559, 4.452e-6
-0.560, 4.422e-6
-0.561, 4.422e-6
-0.562, 4.391e-6
-0.563, 4.361e-6
-0.564, 4.331e-6
-0.565, 4.331e-6
-0.566, 4.331e-6
-0.567, 4.300e-6
-0.568, 4.270e-6
-0.569, 4.270e-6
-0.570, 4.239e-6
-0.571, 4.239e-6
-0.572, 4.209e-6
-0.573, 4.209e-6
-0.574, 4.209e-6
-0.575, 4.179e-6
-0.576, 4.148e-6
-0.577, 4.148e-6
-0.578, 4.148e-6
-0.579, 4.118e-6
-0.580, 4.087e-6
-0.581, 4.087e-6
-0.582, 4.087e-6
-0.583, 4.057e-6
-0.584, 4.027e-6
-0.585, 4.027e-6
-0.586, 4.027e-6
-0.587, 3.996e-6
-0.588, 3.966e-6
-0.589, 3.966e-6
-0.590, 3.966e-6
-0.591, 3.966e-6
-0.592, 3.935e-6
-0.593, 3.935e-6
-0.594, 3.905e-6
-0.595, 3.905e-6
-0.596, 3.874e-6
-0.597, 3.844e-6
-0.598, 3.844e-6
-0.599, 3.844e-6
-0.600, 3.814e-6
-0.601, 3.783e-6
-0.602, 3.783e-6
-0.603, 3.783e-6
-0.604, 3.783e-6
-0.605, 3.753e-6
-0.606, 3.753e-6
-0.607, 3.753e-6
-0.608, 3.722e-6
-0.609, 3.692e-6
-0.610, 3.692e-6
-0.611, 3.692e-6
-0.612, 3.692e-6
-0.613, 3.662e-6
-0.614, 3.631e-6
-0.615, 3.631e-6
-0.616, 3.631e-6
-0.617, 3.601e-6
-0.618, 3.601e-6
-0.619, 3.601e-6
-0.620, 3.570e-6
-0.621, 3.540e-6
-0.622, 3.540e-6
-0.623, 3.540e-6
-0.624, 3.540e-6
-0.625, 3.509e-6
-0.626, 3.479e-6
-0.627, 3.479e-6
-0.628, 3.479e-6
-0.629, 3.449e-6
-0.630, 3.418e-6
-0.631, 3.418e-6
-0.632, 3.418e-6
-0.633, 3.418e-6
-0.634, 3.388e-6
-0.635, 3.388e-6
-0.636, 3.388e-6
-0.637, 3.357e-6
-0.638, 3.327e-6
-0.639, 3.327e-6
-0.640, 3.327e-6
-0.641, 3.297e-6
-0.642, 3.266e-6
-0.643, 3.266e-6
-0.644, 3.266e-6
-0.645, 3.236e-6
-0.646, 3.236e-6
-0.647, 3.205e-6
-0.648, 3.205e-6
-0.649, 3.205e-6
-0.650, 3.175e-6
-0.651, 3.145e-6
-0.652, 3.145e-6
-0.653, 3.145e-6
-0.654, 3.114e-6
-0.655, 3.114e-6
-0.656, 3.084e-6
-0.657, 3.084e-6
-0.658, 3.084e-6
-0.659, 3.053e-6
-0.660, 3.023e-6
-0.661, 3.023e-6
-0.662, 3.023e-6
-0.663, 2.992e-6
-0.664, 2.962e-6
-0.665, 2.962e-6
-0.666, 2.962e-6
-0.667, 2.932e-6
-0.668, 2.901e-6
-0.669, 2.901e-6
-0.670, 2.901e-6
-0.671, 2.871e-6
-0.672, 2.840e-6
-0.673, 2.840e-6
-0.674, 2.840e-6
-0.675, 2.810e-6
-0.676, 2.780e-6
-0.677, 2.780e-6
-0.678, 2.749e-6
-0.679, 2.749e-6
-0.680, 2.719e-6
-0.681, 2.719e-6
-0.682, 2.688e-6
-0.683, 2.658e-6
-0.684, 2.658e-6
-0.685, 2.628e-6
-0.686, 2.628e-6
-0.687, 2.597e-6
-0.688, 2.567e-6
-0.689, 2.567e-6
-0.690, 2.536e-6
-0.691, 2.536e-6
-0.692, 2.506e-6
-0.693, 2.475e-6
-0.694, 2.475e-6
-0.695, 2.445e-6
-0.696, 2.415e-6
-0.697, 2.415e-6
-0.698, 2.384e-6
-0.699, 2.354e-6
-0.700, 2.323e-6
-0.701, 2.293e-6
-0.702, 2.293e-6
-0.703, 2.263e-6
-0.704, 2.232e-6
-0.705, 2.202e-6
-0.706, 2.202e-6
-0.707, 2.171e-6
-0.708, 2.141e-6
-0.709, 2.110e-6
-0.710, 2.080e-6
-0.711, 2.080e-6
-0.712, 2.050e-6
-0.713, 2.019e-6
-0.714, 1.989e-6
-0.715, 1.958e-6
-0.716, 1.928e-6
-0.717, 1.898e-6
-0.718, 1.867e-6
-0.719, 1.837e-6
-0.720, 1.806e-6
-0.721, 1.776e-6
-0.722, 1.746e-6
-0.723, 1.715e-6
-0.724, 1.685e-6
-0.725, 1.624e-6
-0.726, 1.593e-6
-0.727, 1.563e-6
-0.728, 1.533e-6
-0.729, 1.502e-6
-0.730, 1.441e-6
-0.731, 1.411e-6
-0.732, 1.381e-6
-0.733, 1.320e-6
-0.734, 1.289e-6
-0.735, 1.259e-6
-0.736, 1.198e-6
-0.737, 1.168e-6
-0.738, 1.107e-6
-0.739, 1.046e-6
-0.740, 1.016e-6
-0.741, 9.548e-7
-0.742, 8.940e-7
-0.743, 8.636e-7
-0.744, 8.027e-7
-0.745, 7.419e-7
-0.746, 6.811e-7
-0.747, 6.203e-7
-0.748, 5.594e-7
-0.749, 4.986e-7
-0.750, 4.378e-7
-0.751, 3.465e-7
-0.752, 3.161e-7
-0.753, 2.249e-7
-0.754, 1.641e-7
-0.755, 7.283e-8
-0.756, 1.200e-8
-0.757, -7.924e-8
-0.758, -1.705e-7
-0.759, -2.313e-7
-0.760, -3.225e-7
-0.761, -4.138e-7
-0.762, -5.050e-7
-0.763, -5.963e-7
-0.764, -6.875e-7
-0.765, -7.787e-7
-0.766, -9.004e-7
-0.767, -9.916e-7
-0.768, -1.113e-6
-0.769, -1.205e-6
-0.770, -1.326e-6
-0.771, -1.448e-6
-0.772, -1.569e-6
-0.773, -1.691e-6
-0.774, -1.813e-6
-0.775, -1.934e-6
-0.776, -2.086e-6
-0.777, -2.208e-6
-0.778, -2.360e-6
-0.779, -2.512e-6
-0.780, -2.664e-6
-0.781, -2.816e-6
-0.782, -2.968e-6
-0.783, -3.121e-6
-0.784, -3.303e-6
-0.785, -3.455e-6
-0.786, -3.638e-6
-0.787, -3.820e-6
-0.788, -4.003e-6
-0.789, -4.185e-6
-0.790, -4.398e-6
-0.791, -4.580e-6
-0.792, -4.793e-6
-0.793, -5.006e-6
-0.794, -5.189e-6
-0.795, -5.432e-6
-0.796, -5.645e-6
-0.797, -5.888e-6
-0.798, -6.101e-6
-0.799, -6.344e-6
-0.800, -6.588e-6
-0.801, -6.861e-6
-0.802, -7.135e-6
-0.803, -7.378e-6
-0.804, -7.652e-6
-0.805, -7.926e-6
-0.806, -8.199e-6
-0.807, -8.504e-6
-0.808, -8.808e-6
-0.809, -9.081e-6
-0.810, -9.416e-6
-0.811, -9.720e-6
-0.812, -1.005e-5
-0.813, -1.036e-5
-0.814, -1.069e-5
-0.815, -1.103e-5
-0.816, -1.139e-5
-0.817, -1.173e-5
-0.818, -1.209e-5
-0.819, -1.243e-5
-0.820, -1.276e-5
-0.821, -1.316e-5
-0.822, -1.352e-5
-0.823, -1.392e-5
-0.824, -1.431e-5
-0.825, -1.471e-5
-0.826, -1.510e-5
-0.827, -1.553e-5
-0.828, -1.595e-5
-0.829, -1.638e-5
-0.830, -1.678e-5
-0.831, -1.723e-5
-0.832, -1.769e-5
-0.833, -1.811e-5
-0.834, -1.857e-5
-0.835, -1.903e-5
-0.836, -1.948e-5
-0.837, -1.997e-5
-0.838, -2.043e-5
-0.839, -2.088e-5
-0.840, -2.134e-5
-0.841, -2.182e-5
-0.842, -2.231e-5
-0.843, -2.277e-5
-0.844, -2.328e-5
-0.845, -2.374e-5
-0.846, -2.423e-5
-0.847, -2.471e-5
-0.848, -2.523e-5
-0.849, -2.572e-5
-0.850, -2.623e-5
-0.851, -2.672e-5
-0.852, -2.721e-5
-0.853, -2.776e-5
-0.854, -2.824e-5
-0.855, -2.873e-5
-0.856, -2.925e-5
-0.857, -2.976e-5
-0.858, -3.025e-5
-0.859, -3.074e-5
-0.860, -3.125e-5
-0.861, -3.177e-5
-0.862, -3.226e-5
-0.863, -3.274e-5
-0.864, -3.320e-5
-0.865, -3.372e-5
-0.866, -3.420e-5
-0.867, -3.469e-5
-0.868, -3.515e-5
-0.869, -3.566e-5
-0.870, -3.612e-5
-0.871, -3.664e-5
-0.872, -3.706e-5
-0.873, -3.752e-5
-0.874, -3.800e-5
-0.875, -3.843e-5
-0.876, -3.886e-5
-0.877, -3.928e-5
-0.878, -3.974e-5
-0.879, -4.019e-5
-0.880, -4.059e-5
-0.881, -4.098e-5
-0.882, -4.141e-5
-0.883, -4.181e-5
-0.884, -4.217e-5
-0.885, -4.257e-5
-0.886, -4.296e-5
-0.887, -4.333e-5
-0.888, -4.369e-5
-0.889, -4.403e-5
-0.890, -4.439e-5
-0.891, -4.473e-5
-0.892, -4.506e-5
-0.893, -4.536e-5
-0.894, -4.570e-5
-0.895, -4.600e-5
-0.896, -4.628e-5
-0.897, -4.652e-5
-0.898, -4.682e-5
-0.899, -4.713e-5
-0.900, -4.737e-5
-0.901, -4.765e-5
-0.902, -4.789e-5
-0.903, -4.813e-5
-0.904, -4.837e-5
-0.905, -4.859e-5
-0.906, -4.880e-5
-0.907, -4.904e-5
-0.908, -4.926e-5
-0.909, -4.944e-5
-0.910, -4.962e-5
-0.911, -4.980e-5
-0.912, -4.999e-5
-0.913, -5.014e-5
-0.914, -5.029e-5
-0.915, -5.044e-5
-0.916, -5.060e-5
-0.917, -5.075e-5
-0.918, -5.087e-5
-0.919, -5.099e-5
-0.920, -5.111e-5
-0.921, -5.123e-5
-0.922, -5.136e-5
-0.923, -5.145e-5
-0.924, -5.154e-5
-0.925, -5.163e-5
-0.926, -5.169e-5
-0.927, -5.178e-5
-0.928, -5.184e-5
-0.929, -5.190e-5
-0.930, -5.199e-5
-0.931, -5.202e-5
-0.932, -5.209e-5
-0.933, -5.215e-5
-0.934, -5.218e-5
-0.935, -5.221e-5
-0.936, -5.224e-5
-0.937, -5.227e-5
-0.938, -5.227e-5
-0.939, -5.230e-5
-0.940, -5.230e-5
-0.941, -5.233e-5
-0.942, -5.233e-5
-0.943, -5.233e-5
-0.944, -5.233e-5
-0.945, -5.233e-5
-0.946, -5.230e-5
-0.947, -5.227e-5
-0.948, -5.227e-5
-0.949, -5.224e-5
-0.950, -5.221e-5
-0.951, -5.218e-5
-0.952, -5.218e-5
-0.953, -5.212e-5
-0.954, -5.209e-5
-0.955, -5.205e-5
-0.956, -5.199e-5
-0.957, -5.196e-5
-0.958, -5.193e-5
-0.959, -5.187e-5
-0.960, -5.184e-5
-0.961, -5.178e-5
-0.962, -5.175e-5
-0.963, -5.169e-5
-0.964, -5.163e-5
-0.965, -5.157e-5
-0.966, -5.151e-5
-0.967, -5.145e-5
-0.968, -5.139e-5
-0.969, -5.129e-5
-0.970, -5.123e-5
-0.971, -5.117e-5
-0.972, -5.111e-5
-0.973, -5.105e-5
-0.974, -5.096e-5
-0.975, -5.090e-5
-0.976, -5.081e-5
-0.977, -5.075e-5
-0.978, -5.066e-5
-0.979, -5.060e-5
-0.980, -5.050e-5
-0.981, -5.041e-5
-0.982, -5.035e-5
-0.983, -5.026e-5
-0.984, -5.020e-5
-0.985, -5.008e-5
-0.986, -5.002e-5
-0.987, -4.993e-5
-0.988, -4.983e-5
-0.989, -4.974e-5
-0.990, -4.965e-5
-0.991, -4.956e-5
-0.992, -4.950e-5
-0.993, -4.941e-5
-0.994, -4.929e-5
-0.995, -4.920e-5
-0.996, -4.914e-5
-0.997, -4.904e-5
-0.998, -4.892e-5
-0.999, -4.883e-5
-1.000, -4.874e-5
-1.001, -4.865e-5
-1.002, -4.856e-5
-1.003, -4.847e-5
-1.004, -4.837e-5
-1.005, -4.828e-5
-1.006, -4.819e-5
-1.007, -4.810e-5
-1.008, -4.801e-5
-1.009, -4.792e-5
-1.010, -4.783e-5
-1.011, -4.774e-5
-1.012, -4.765e-5
-1.013, -4.755e-5
-1.014, -4.746e-5
-1.015, -4.737e-5
-1.016, -4.728e-5
-1.017, -4.719e-5
-1.018, -4.710e-5
-1.019, -4.701e-5
-1.020, -4.692e-5
-1.021, -4.682e-5
-1.022, -4.673e-5
-1.023, -4.664e-5
-1.024, -4.655e-5
-1.025, -4.646e-5
-1.026, -4.637e-5
-1.027, -4.628e-5
-1.028, -4.619e-5
-1.029, -4.609e-5
-1.030, -4.600e-5
-1.031, -4.591e-5
-1.032, -4.582e-5
-1.033, -4.573e-5
-1.034, -4.567e-5
-1.035, -4.558e-5
-1.036, -4.546e-5
-1.037, -4.539e-5
-1.038, -4.530e-5
-1.039, -4.521e-5
-1.040, -4.512e-5
-1.041, -4.503e-5
-1.042, -4.494e-5
-1.043, -4.488e-5
-1.044, -4.476e-5
-1.045, -4.470e-5
-1.046, -4.460e-5
-1.047, -4.454e-5
-1.048, -4.445e-5
-1.049, -4.436e-5
-1.050, -4.427e-5
-1.051, -4.421e-5
-1.052, -4.412e-5
-1.053, -4.403e-5
-1.054, -4.397e-5
-1.055, -4.387e-5
-1.056, -4.378e-5
-1.057, -4.369e-5
-1.058, -4.363e-5
-1.059, -4.357e-5
-1.060, -4.348e-5
-1.061, -4.339e-5
-1.062, -4.333e-5
-1.063, -4.324e-5
-1.064, -4.317e-5
-1.065, -4.308e-5
-1.066, -4.299e-5
-1.067, -4.296e-5
-1.068, -4.287e-5
-1.069, -4.278e-5
-1.070, -4.272e-5
-1.071, -4.263e-5
-1.072, -4.257e-5
-1.073, -4.247e-5
-1.074, -4.241e-5
-1.075, -4.235e-5
-1.076, -4.226e-5
-1.077, -4.220e-5
-1.078, -4.214e-5
-1.079, -4.205e-5
-1.080, -4.199e-5
-1.081, -4.193e-5
-1.082, -4.184e-5
-1.083, -4.178e-5
-1.084, -4.171e-5
-1.085, -4.165e-5
-1.086, -4.156e-5
-1.087, -4.150e-5
-1.088, -4.144e-5
-1.089, -4.138e-5
-1.090, -4.132e-5
-1.091, -4.123e-5
-1.092, -4.120e-5
-1.093, -4.111e-5
-1.094, -4.105e-5
-1.095, -4.098e-5
-1.096, -4.092e-5
-1.097, -4.086e-5
-1.098, -4.080e-5
-1.099, -4.074e-5
-1.100, -4.068e-5
-1.101, -4.062e-5
-1.102, -4.056e-5
-1.103, -4.050e-5
-1.104, -4.044e-5
-1.105, -4.038e-5
-1.106, -4.032e-5
-1.107, -4.025e-5
-1.108, -4.019e-5
-1.109, -4.013e-5
-1.110, -4.007e-5
-1.111, -4.001e-5
-1.112, -3.995e-5
-1.113, -3.989e-5
-1.114, -3.986e-5
-1.115, -3.977e-5
-1.116, -3.971e-5
-1.117, -3.968e-5
-1.118, -3.962e-5
-1.119, -3.956e-5
-1.120, -3.949e-5
-1.121, -3.946e-5
-1.122, -3.940e-5
-1.123, -3.934e-5
-1.124, -3.928e-5
-1.125, -3.925e-5
-1.126, -3.919e-5
-1.127, -3.913e-5
-1.128, -3.907e-5
-1.129, -3.904e-5
-1.130, -3.898e-5
-1.131, -3.892e-5
-1.132, -3.886e-5
-1.133, -3.883e-5
-1.134, -3.876e-5
-1.135, -3.873e-5
-1.136, -3.867e-5
-1.137, -3.861e-5
-1.138, -3.858e-5
-1.139, -3.852e-5
-1.140, -3.846e-5
-1.141, -3.843e-5
-1.142, -3.840e-5
-1.143, -3.834e-5
-1.144, -3.828e-5
-1.145, -3.825e-5
-1.146, -3.819e-5
-1.147, -3.816e-5
-1.148, -3.810e-5
-1.149, -3.807e-5
-1.150, -3.800e-5
-1.151, -3.797e-5
-1.152, -3.791e-5
-1.153, -3.785e-5
-1.154, -3.782e-5
-1.155, -3.779e-5
-1.156, -3.773e-5
-1.157, -3.770e-5
-1.158, -3.764e-5
-1.159, -3.761e-5
-1.160, -3.758e-5
-1.161, -3.752e-5
-1.162, -3.749e-5
-1.163, -3.746e-5
-1.164, -3.740e-5
-1.165, -3.737e-5
-1.166, -3.730e-5
-1.167, -3.727e-5
-1.168, -3.724e-5
-1.169, -3.718e-5
-1.170, -3.715e-5
-1.171, -3.712e-5
-1.172, -3.709e-5
-1.173, -3.703e-5
-1.174, -3.700e-5
-1.175, -3.697e-5
-1.176, -3.694e-5
-1.177, -3.688e-5
-1.178, -3.685e-5
-1.179, -3.682e-5
-1.180, -3.679e-5
-1.181, -3.676e-5
-1.182, -3.670e-5
-1.183, -3.667e-5
-1.184, -3.664e-5
-1.185, -3.661e-5
-1.186, -3.654e-5
-1.187, -3.651e-5
-1.188, -3.648e-5
-1.189, -3.645e-5
-1.190, -3.642e-5
-1.191, -3.639e-5
-1.192, -3.636e-5
-1.193, -3.633e-5
-1.194, -3.627e-5
-1.195, -3.624e-5
-1.196, -3.621e-5
-1.197, -3.618e-5
-1.198, -3.615e-5
-1.199, -3.612e-5
