May 10, 2022   10:12:30
Cyclic Voltammetry
File: c:\users\nstumme\onedrive - university of iowa\documents\year 3\220510\tq\200 mv.csv
Data Source:  Experiment
Instrument Model:  CHI660D
Header: 
Note: 

Init E (V) = -1.2
High E (V) = -0.5
Low E (V) = -1.2
Init P/N = P
Scan Rate (V/s) = 0.2
Segment = 6
Sample Interval (V) = 0.001
Quiet Time (sec) = 2
Sensitivity (A/V) = 1e-4

Segment 1:

Segment 2:

Segment 3:

Segment 4:

Segment 5:
Segment 6:

Potential/V, Current/A

-1.200, -4.233e-5
-1.199, -4.225e-5
-1.198, -4.220e-5
-1.197, -4.214e-5
-1.196, -4.207e-5
-1.195, -4.202e-5
-1.194, -4.198e-5
-1.193, -4.191e-5
-1.192, -4.186e-5
-1.191, -4.182e-5
-1.190, -4.176e-5
-1.189, -4.170e-5
-1.188, -4.166e-5
-1.187, -4.161e-5
-1.186, -4.155e-5
-1.185, -4.151e-5
-1.184, -4.147e-5
-1.183, -4.140e-5
-1.182, -4.136e-5
-1.181, -4.132e-5
-1.180, -4.127e-5
-1.179, -4.122e-5
-1.178, -4.118e-5
-1.177, -4.113e-5
-1.176, -4.107e-5
-1.175, -4.104e-5
-1.174, -4.100e-5
-1.173, -4.094e-5
-1.172, -4.090e-5
-1.171, -4.086e-5
-1.170, -4.081e-5
-1.169, -4.076e-5
-1.168, -4.073e-5
-1.167, -4.068e-5
-1.166, -4.062e-5
-1.165, -4.059e-5
-1.164, -4.055e-5
-1.163, -4.049e-5
-1.162, -4.045e-5
-1.161, -4.042e-5
-1.160, -4.036e-5
-1.159, -4.032e-5
-1.158, -4.029e-5
-1.157, -4.024e-5
-1.156, -4.019e-5
-1.155, -4.015e-5
-1.154, -4.011e-5
-1.153, -4.006e-5
-1.152, -4.003e-5
-1.151, -3.999e-5
-1.150, -3.993e-5
-1.149, -3.989e-5
-1.148, -3.985e-5
-1.147, -3.981e-5
-1.146, -3.976e-5
-1.145, -3.972e-5
-1.144, -3.968e-5
-1.143, -3.963e-5
-1.142, -3.959e-5
-1.141, -3.956e-5
-1.140, -3.951e-5
-1.139, -3.946e-5
-1.138, -3.943e-5
-1.137, -3.938e-5
-1.136, -3.933e-5
-1.135, -3.930e-5
-1.134, -3.927e-5
-1.133, -3.921e-5
-1.132, -3.918e-5
-1.131, -3.914e-5
-1.130, -3.909e-5
-1.129, -3.905e-5
-1.128, -3.902e-5
-1.127, -3.897e-5
-1.126, -3.892e-5
-1.125, -3.889e-5
-1.124, -3.885e-5
-1.123, -3.880e-5
-1.122, -3.876e-5
-1.121, -3.872e-5
-1.120, -3.867e-5
-1.119, -3.863e-5
-1.118, -3.860e-5
-1.117, -3.856e-5
-1.116, -3.851e-5
-1.115, -3.848e-5
-1.114, -3.844e-5
-1.113, -3.838e-5
-1.112, -3.835e-5
-1.111, -3.832e-5
-1.110, -3.827e-5
-1.109, -3.823e-5
-1.108, -3.819e-5
-1.107, -3.815e-5
-1.106, -3.810e-5
-1.105, -3.807e-5
-1.104, -3.803e-5
-1.103, -3.797e-5
-1.102, -3.794e-5
-1.101, -3.790e-5
-1.100, -3.785e-5
-1.099, -3.781e-5
-1.098, -3.778e-5
-1.097, -3.773e-5
-1.096, -3.768e-5
-1.095, -3.765e-5
-1.094, -3.761e-5
-1.093, -3.756e-5
-1.092, -3.752e-5
-1.091, -3.749e-5
-1.090, -3.743e-5
-1.089, -3.739e-5
-1.088, -3.736e-5
-1.087, -3.731e-5
-1.086, -3.726e-5
-1.085, -3.723e-5
-1.084, -3.719e-5
-1.083, -3.714e-5
-1.082, -3.710e-5
-1.081, -3.707e-5
-1.080, -3.701e-5
-1.079, -3.697e-5
-1.078, -3.694e-5
-1.077, -3.689e-5
-1.076, -3.684e-5
-1.075, -3.680e-5
-1.074, -3.676e-5
-1.073, -3.671e-5
-1.072, -3.667e-5
-1.071, -3.664e-5
-1.070, -3.658e-5
-1.069, -3.654e-5
-1.068, -3.650e-5
-1.067, -3.645e-5
-1.066, -3.640e-5
-1.065, -3.636e-5
-1.064, -3.632e-5
-1.063, -3.627e-5
-1.062, -3.622e-5
-1.061, -3.619e-5
-1.060, -3.613e-5
-1.059, -3.608e-5
-1.058, -3.604e-5
-1.057, -3.599e-5
-1.056, -3.594e-5
-1.055, -3.590e-5
-1.054, -3.586e-5
-1.053, -3.580e-5
-1.052, -3.576e-5
-1.051, -3.571e-5
-1.050, -3.566e-5
-1.049, -3.561e-5
-1.048, -3.557e-5
-1.047, -3.551e-5
-1.046, -3.546e-5
-1.045, -3.542e-5
-1.044, -3.537e-5
-1.043, -3.531e-5
-1.042, -3.526e-5
-1.041, -3.521e-5
-1.040, -3.515e-5
-1.039, -3.510e-5
-1.038, -3.505e-5
-1.037, -3.499e-5
-1.036, -3.493e-5
-1.035, -3.489e-5
-1.034, -3.483e-5
-1.033, -3.477e-5
-1.032, -3.471e-5
-1.031, -3.467e-5
-1.030, -3.460e-5
-1.029, -3.454e-5
-1.028, -3.448e-5
-1.027, -3.442e-5
-1.026, -3.436e-5
-1.025, -3.430e-5
-1.024, -3.424e-5
-1.023, -3.417e-5
-1.022, -3.411e-5
-1.021, -3.405e-5
-1.020, -3.398e-5
-1.019, -3.391e-5
-1.018, -3.385e-5
-1.017, -3.378e-5
-1.016, -3.371e-5
-1.015, -3.364e-5
-1.014, -3.357e-5
-1.013, -3.349e-5
-1.012, -3.342e-5
-1.011, -3.335e-5
-1.010, -3.327e-5
-1.009, -3.320e-5
-1.008, -3.312e-5
-1.007, -3.304e-5
-1.006, -3.296e-5
-1.005, -3.289e-5
-1.004, -3.281e-5
-1.003, -3.272e-5
-1.002, -3.263e-5
-1.001, -3.255e-5
-1.000, -3.245e-5
-0.999, -3.237e-5
-0.998, -3.229e-5
-0.997, -3.219e-5
-0.996, -3.209e-5
-0.995, -3.201e-5
-0.994, -3.190e-5
-0.993, -3.180e-5
-0.992, -3.171e-5
-0.991, -3.161e-5
-0.990, -3.149e-5
-0.989, -3.138e-5
-0.988, -3.128e-5
-0.987, -3.116e-5
-0.986, -3.104e-5
-0.985, -3.093e-5
-0.984, -3.081e-5
-0.983, -3.068e-5
-0.982, -3.057e-5
-0.981, -3.044e-5
-0.980, -3.031e-5
-0.979, -3.018e-5
-0.978, -3.005e-5
-0.977, -2.990e-5
-0.976, -2.977e-5
-0.975, -2.963e-5
-0.974, -2.948e-5
-0.973, -2.932e-5
-0.972, -2.916e-5
-0.971, -2.901e-5
-0.970, -2.885e-5
-0.969, -2.870e-5
-0.968, -2.853e-5
-0.967, -2.836e-5
-0.966, -2.819e-5
-0.965, -2.801e-5
-0.964, -2.783e-5
-0.963, -2.764e-5
-0.962, -2.746e-5
-0.961, -2.725e-5
-0.960, -2.705e-5
-0.959, -2.686e-5
-0.958, -2.664e-5
-0.957, -2.643e-5
-0.956, -2.622e-5
-0.955, -2.599e-5
-0.954, -2.577e-5
-0.953, -2.554e-5
-0.952, -2.531e-5
-0.951, -2.507e-5
-0.950, -2.483e-5
-0.949, -2.458e-5
-0.948, -2.431e-5
-0.947, -2.407e-5
-0.946, -2.380e-5
-0.945, -2.353e-5
-0.944, -2.324e-5
-0.943, -2.296e-5
-0.942, -2.267e-5
-0.941, -2.236e-5
-0.940, -2.205e-5
-0.939, -2.175e-5
-0.938, -2.144e-5
-0.937, -2.111e-5
-0.936, -2.078e-5
-0.935, -2.045e-5
-0.934, -2.008e-5
-0.933, -1.973e-5
-0.932, -1.938e-5
-0.931, -1.901e-5
-0.930, -1.864e-5
-0.929, -1.826e-5
-0.928, -1.786e-5
-0.927, -1.747e-5
-0.926, -1.708e-5
-0.925, -1.666e-5
-0.924, -1.623e-5
-0.923, -1.582e-5
-0.922, -1.537e-5
-0.921, -1.489e-5
-0.920, -1.444e-5
-0.919, -1.400e-5
-0.918, -1.353e-5
-0.917, -1.305e-5
-0.916, -1.258e-5
-0.915, -1.209e-5
-0.914, -1.157e-5
-0.913, -1.107e-5
-0.912, -1.056e-5
-0.911, -1.002e-5
-0.910, -9.488e-6
-0.909, -8.971e-6
-0.908, -8.394e-6
-0.907, -7.831e-6
-0.906, -7.292e-6
-0.905, -6.706e-6
-0.904, -6.101e-6
-0.903, -5.536e-6
-0.902, -4.950e-6
-0.901, -4.332e-6
-0.900, -3.707e-6
-0.899, -3.119e-6
-0.898, -2.471e-6
-0.897, -1.823e-6
-0.896, -1.260e-6
-0.895, -6.232e-7
-0.894, 8.261e-8
-0.893, 7.129e-7
-0.892, 1.354e-6
-0.891, 2.077e-6
-0.890, 2.743e-6
-0.889, 3.402e-6
-0.888, 4.121e-6
-0.887, 4.813e-6
-0.886, 5.479e-6
-0.885, 6.201e-6
-0.884, 6.918e-6
-0.883, 7.603e-6
-0.882, 8.301e-6
-0.881, 9.063e-6
-0.880, 9.775e-6
-0.879, 1.044e-5
-0.878, 1.120e-5
-0.877, 1.192e-5
-0.876, 1.260e-5
-0.875, 1.334e-5
-0.874, 1.408e-5
-0.873, 1.477e-5
-0.872, 1.548e-5
-0.871, 1.625e-5
-0.870, 1.703e-5
-0.869, 1.770e-5
-0.868, 1.844e-5
-0.867, 1.915e-5
-0.866, 1.981e-5
-0.865, 2.052e-5
-0.864, 2.125e-5
-0.863, 2.189e-5
-0.862, 2.258e-5
-0.861, 2.329e-5
-0.860, 2.393e-5
-0.859, 2.458e-5
-0.858, 2.527e-5
-0.857, 2.594e-5
-0.856, 2.654e-5
-0.855, 2.717e-5
-0.854, 2.781e-5
-0.853, 2.839e-5
-0.852, 2.897e-5
-0.851, 2.960e-5
-0.850, 3.015e-5
-0.849, 3.068e-5
-0.848, 3.124e-5
-0.847, 3.178e-5
-0.846, 3.231e-5
-0.845, 3.278e-5
-0.844, 3.325e-5
-0.843, 3.371e-5
-0.842, 3.416e-5
-0.841, 3.465e-5
-0.840, 3.508e-5
-0.839, 3.546e-5
-0.838, 3.588e-5
-0.837, 3.630e-5
-0.836, 3.663e-5
-0.835, 3.699e-5
-0.834, 3.737e-5
-0.833, 3.766e-5
-0.832, 3.796e-5
-0.831, 3.827e-5
-0.830, 3.854e-5
-0.829, 3.876e-5
-0.828, 3.900e-5
-0.827, 3.924e-5
-0.826, 3.940e-5
-0.825, 3.957e-5
-0.824, 3.975e-5
-0.823, 3.988e-5
-0.822, 4.001e-5
-0.821, 4.015e-5
-0.820, 4.024e-5
-0.819, 4.018e-5
-0.818, 4.026e-5
-0.817, 4.035e-5
-0.816, 4.037e-5
-0.815, 4.040e-5
-0.814, 4.044e-5
-0.813, 4.040e-5
-0.812, 4.037e-5
-0.811, 4.037e-5
-0.810, 4.030e-5
-0.809, 4.022e-5
-0.808, 4.017e-5
-0.807, 4.010e-5
-0.806, 3.999e-5
-0.805, 3.987e-5
-0.804, 3.976e-5
-0.803, 3.961e-5
-0.802, 3.946e-5
-0.801, 3.933e-5
-0.800, 3.915e-5
-0.799, 3.896e-5
-0.798, 3.879e-5
-0.797, 3.860e-5
-0.796, 3.839e-5
-0.795, 3.819e-5
-0.794, 3.798e-5
-0.793, 3.772e-5
-0.792, 3.749e-5
-0.791, 3.728e-5
-0.790, 3.704e-5
-0.789, 3.680e-5
-0.788, 3.657e-5
-0.787, 3.633e-5
-0.786, 3.607e-5
-0.785, 3.582e-5
-0.784, 3.556e-5
-0.783, 3.529e-5
-0.782, 3.503e-5
-0.781, 3.477e-5
-0.780, 3.451e-5
-0.779, 3.424e-5
-0.778, 3.397e-5
-0.777, 3.370e-5
-0.776, 3.343e-5
-0.775, 3.316e-5
-0.774, 3.289e-5
-0.773, 3.261e-5
-0.772, 3.234e-5
-0.771, 3.208e-5
-0.770, 3.181e-5
-0.769, 3.154e-5
-0.768, 3.129e-5
-0.767, 3.102e-5
-0.766, 3.075e-5
-0.765, 3.048e-5
-0.764, 3.022e-5
-0.763, 2.996e-5
-0.762, 2.969e-5
-0.761, 2.943e-5
-0.760, 2.918e-5
-0.759, 2.892e-5
-0.758, 2.867e-5
-0.757, 2.842e-5
-0.756, 2.817e-5
-0.755, 2.792e-5
-0.754, 2.768e-5
-0.753, 2.744e-5
-0.752, 2.720e-5
-0.751, 2.696e-5
-0.750, 2.673e-5
-0.749, 2.649e-5
-0.748, 2.626e-5
-0.747, 2.604e-5
-0.746, 2.581e-5
-0.745, 2.558e-5
-0.744, 2.537e-5
-0.743, 2.515e-5
-0.742, 2.493e-5
-0.741, 2.471e-5
-0.740, 2.451e-5
-0.739, 2.430e-5
-0.738, 2.409e-5
-0.737, 2.389e-5
-0.736, 2.370e-5
-0.735, 2.349e-5
-0.734, 2.330e-5
-0.733, 2.311e-5
-0.732, 2.291e-5
-0.731, 2.272e-5
-0.730, 2.254e-5
-0.729, 2.236e-5
-0.728, 2.217e-5
-0.727, 2.199e-5
-0.726, 2.182e-5
-0.725, 2.164e-5
-0.724, 2.147e-5
-0.723, 2.131e-5
-0.722, 2.114e-5
-0.721, 2.096e-5
-0.720, 2.080e-5
-0.719, 2.065e-5
-0.718, 2.048e-5
-0.717, 2.032e-5
-0.716, 2.017e-5
-0.715, 2.001e-5
-0.714, 1.986e-5
-0.713, 1.971e-5
-0.712, 1.956e-5
-0.711, 1.940e-5
-0.710, 1.926e-5
-0.709, 1.912e-5
-0.708, 1.897e-5
-0.707, 1.883e-5
-0.706, 1.870e-5
-0.705, 1.856e-5
-0.704, 1.842e-5
-0.703, 1.830e-5
-0.702, 1.816e-5
-0.701, 1.802e-5
-0.700, 1.790e-5
-0.699, 1.778e-5
-0.698, 1.764e-5
-0.697, 1.753e-5
-0.696, 1.741e-5
-0.695, 1.728e-5
-0.694, 1.716e-5
-0.693, 1.705e-5
-0.692, 1.693e-5
-0.691, 1.680e-5
-0.690, 1.670e-5
-0.689, 1.659e-5
-0.688, 1.647e-5
-0.687, 1.636e-5
-0.686, 1.626e-5
-0.685, 1.614e-5
-0.684, 1.603e-5
-0.683, 1.593e-5
-0.682, 1.583e-5
-0.681, 1.572e-5
-0.680, 1.562e-5
-0.679, 1.552e-5
-0.678, 1.541e-5
-0.677, 1.532e-5
-0.676, 1.523e-5
-0.675, 1.512e-5
-0.674, 1.502e-5
-0.673, 1.494e-5
-0.672, 1.484e-5
-0.671, 1.474e-5
-0.670, 1.466e-5
-0.669, 1.457e-5
-0.668, 1.447e-5
-0.667, 1.439e-5
-0.666, 1.431e-5
-0.665, 1.421e-5
-0.664, 1.412e-5
-0.663, 1.405e-5
-0.662, 1.396e-5
-0.661, 1.387e-5
-0.660, 1.380e-5
-0.659, 1.372e-5
-0.658, 1.363e-5
-0.657, 1.355e-5
-0.656, 1.348e-5
-0.655, 1.340e-5
-0.654, 1.331e-5
-0.653, 1.325e-5
-0.652, 1.317e-5
-0.651, 1.308e-5
-0.650, 1.301e-5
-0.649, 1.295e-5
-0.648, 1.286e-5
-0.647, 1.279e-5
-0.646, 1.273e-5
-0.645, 1.265e-5
-0.644, 1.258e-5
-0.643, 1.252e-5
-0.642, 1.245e-5
-0.641, 1.237e-5
-0.640, 1.231e-5
-0.639, 1.224e-5
-0.638, 1.217e-5
-0.637, 1.211e-5
-0.636, 1.205e-5
-0.635, 1.198e-5
-0.634, 1.191e-5
-0.633, 1.186e-5
-0.632, 1.179e-5
-0.631, 1.172e-5
-0.630, 1.167e-5
-0.629, 1.161e-5
-0.628, 1.154e-5
-0.627, 1.149e-5
-0.626, 1.143e-5
-0.625, 1.137e-5
-0.624, 1.130e-5
-0.623, 1.126e-5
-0.622, 1.120e-5
-0.621, 1.113e-5
-0.620, 1.108e-5
-0.619, 1.103e-5
-0.618, 1.097e-5
-0.617, 1.092e-5
-0.616, 1.088e-5
-0.615, 1.081e-5
-0.614, 1.076e-5
-0.613, 1.072e-5
-0.612, 1.066e-5
-0.611, 1.060e-5
-0.610, 1.056e-5
-0.609, 1.051e-5
-0.608, 1.045e-5
-0.607, 1.041e-5
-0.606, 1.037e-5
-0.605, 1.031e-5
-0.604, 1.026e-5
-0.603, 1.023e-5
-0.602, 1.018e-5
-0.601, 1.012e-5
-0.600, 1.008e-5
-0.599, 1.004e-5
-0.598, 9.990e-6
-0.597, 9.949e-6
-0.596, 9.914e-6
-0.595, 9.864e-6
-0.594, 9.820e-6
-0.593, 9.792e-6
-0.592, 9.750e-6
-0.591, 9.699e-6
-0.590, 9.669e-6
-0.589, 9.627e-6
-0.588, 9.580e-6
-0.587, 9.548e-6
-0.586, 9.521e-6
-0.585, 9.475e-6
-0.584, 9.434e-6
-0.583, 9.409e-6
-0.582, 9.367e-6
-0.581, 9.327e-6
-0.580, 9.301e-6
-0.579, 9.268e-6
-0.578, 9.227e-6
-0.577, 9.196e-6
-0.576, 9.173e-6
-0.575, 9.131e-6
-0.574, 9.101e-6
-0.573, 9.084e-6
-0.572, 9.051e-6
-0.571, 9.017e-6
-0.570, 8.997e-6
-0.569, 8.973e-6
-0.568, 8.939e-6
-0.567, 8.916e-6
-0.566, 8.899e-6
-0.565, 8.869e-6
-0.564, 8.844e-6
-0.563, 8.838e-6
-0.562, 8.814e-6
-0.561, 8.786e-6
-0.560, 8.777e-6
-0.559, 8.764e-6
-0.558, 8.741e-6
-0.557, 8.729e-6
-0.556, 8.725e-6
-0.555, 8.709e-6
-0.554, 8.696e-6
-0.553, 8.699e-6
-0.552, 8.692e-6
-0.551, 8.680e-6
-0.550, 8.690e-6
-0.549, 8.692e-6
-0.548, 8.689e-6
-0.547, 8.697e-6
-0.546, 8.715e-6
-0.545, 8.719e-6
-0.544, 8.733e-6
-0.543, 8.758e-6
-0.542, 8.777e-6
-0.541, 8.796e-6
-0.540, 8.832e-6
-0.539, 8.865e-6
-0.538, 8.890e-6
-0.537, 8.933e-6
-0.536, 8.986e-6
-0.535, 9.027e-6
-0.534, 9.079e-6
-0.533, 9.148e-6
-0.532, 9.207e-6
-0.531, 9.269e-6
-0.530, 9.346e-6
-0.529, 9.424e-6
-0.528, 9.501e-6
-0.527, 9.584e-6
-0.526, 9.681e-6
-0.525, 9.769e-6
-0.524, 9.858e-6
-0.523, 9.969e-6
-0.522, 1.007e-5
-0.521, 1.017e-5
-0.520, 1.029e-5
-0.519, 1.040e-5
-0.518, 1.052e-5
-0.517, 1.065e-5
-0.516, 1.078e-5
-0.515, 1.090e-5
-0.514, 1.103e-5
-0.513, 1.117e-5
-0.512, 1.131e-5
-0.511, 1.145e-5
-0.510, 1.160e-5
-0.509, 1.175e-5
-0.508, 1.190e-5
-0.507, 1.206e-5
-0.506, 1.222e-5
-0.505, 1.237e-5
-0.504, 1.254e-5
-0.503, 1.271e-5
-0.502, 1.288e-5
-0.501, 1.306e-5
-0.500, 1.293e-5
-0.501, 1.222e-5
-0.502, 1.168e-5
-0.503, 1.123e-5
-0.504, 1.085e-5
-0.505, 1.049e-5
-0.506, 1.017e-5
-0.507, 9.881e-6
-0.508, 9.613e-6
-0.509, 9.352e-6
-0.510, 9.118e-6
-0.511, 8.889e-6
-0.512, 8.661e-6
-0.513, 8.463e-6
-0.514, 8.271e-6
-0.515, 8.083e-6
-0.516, 7.906e-6
-0.517, 7.738e-6
-0.518, 7.576e-6
-0.519, 7.416e-6
-0.520, 7.274e-6
-0.521, 7.129e-6
-0.522, 6.986e-6
-0.523, 6.856e-6
-0.524, 6.732e-6
-0.525, 6.604e-6
-0.526, 6.480e-6
-0.527, 6.371e-6
-0.528, 6.259e-6
-0.529, 6.149e-6
-0.530, 6.056e-6
-0.531, 5.958e-6
-0.532, 5.862e-6
-0.533, 5.774e-6
-0.534, 5.692e-6
-0.535, 5.608e-6
-0.536, 5.524e-6
-0.537, 5.457e-6
-0.538, 5.388e-6
-0.539, 5.309e-6
-0.540, 5.250e-6
-0.541, 5.194e-6
-0.542, 5.129e-6
-0.543, 5.078e-6
-0.544, 5.030e-6
-0.545, 4.973e-6
-0.546, 4.925e-6
-0.547, 4.891e-6
-0.548, 4.846e-6
-0.549, 4.798e-6
-0.550, 4.768e-6
-0.551, 4.734e-6
-0.552, 4.695e-6
-0.553, 4.670e-6
-0.554, 4.648e-6
-0.555, 4.610e-6
-0.556, 4.582e-6
-0.557, 4.566e-6
-0.558, 4.538e-6
-0.559, 4.504e-6
-0.560, 4.489e-6
-0.561, 4.470e-6
-0.562, 4.441e-6
-0.563, 4.423e-6
-0.564, 4.413e-6
-0.565, 4.385e-6
-0.566, 4.364e-6
-0.567, 4.356e-6
-0.568, 4.335e-6
-0.569, 4.308e-6
-0.570, 4.300e-6
-0.571, 4.284e-6
-0.572, 4.255e-6
-0.573, 4.243e-6
-0.574, 4.235e-6
-0.575, 4.214e-6
-0.576, 4.195e-6
-0.577, 4.191e-6
-0.578, 4.173e-6
-0.579, 4.148e-6
-0.580, 4.143e-6
-0.581, 4.130e-6
-0.582, 4.104e-6
-0.583, 4.092e-6
-0.584, 4.087e-6
-0.585, 4.061e-6
-0.586, 4.043e-6
-0.587, 4.039e-6
-0.588, 4.023e-6
-0.589, 3.996e-6
-0.590, 3.989e-6
-0.591, 3.980e-6
-0.592, 3.953e-6
-0.593, 3.944e-6
-0.594, 3.938e-6
-0.595, 3.915e-6
-0.596, 3.898e-6
-0.597, 3.894e-6
-0.598, 3.876e-6
-0.599, 3.854e-6
-0.600, 3.847e-6
-0.601, 3.838e-6
-0.602, 3.809e-6
-0.603, 3.799e-6
-0.604, 3.796e-6
-0.605, 3.770e-6
-0.606, 3.752e-6
-0.607, 3.751e-6
-0.608, 3.735e-6
-0.609, 3.713e-6
-0.610, 3.709e-6
-0.611, 3.700e-6
-0.612, 3.675e-6
-0.613, 3.664e-6
-0.614, 3.659e-6
-0.615, 3.637e-6
-0.616, 3.619e-6
-0.617, 3.618e-6
-0.618, 3.601e-6
-0.619, 3.577e-6
-0.620, 3.572e-6
-0.621, 3.562e-6
-0.622, 3.536e-6
-0.623, 3.525e-6
-0.624, 3.523e-6
-0.625, 3.497e-6
-0.626, 3.480e-6
-0.627, 3.478e-6
-0.628, 3.461e-6
-0.629, 3.439e-6
-0.630, 3.436e-6
-0.631, 3.426e-6
-0.632, 3.403e-6
-0.633, 3.392e-6
-0.634, 3.389e-6
-0.635, 3.364e-6
-0.636, 3.348e-6
-0.637, 3.348e-6
-0.638, 3.327e-6
-0.639, 3.302e-6
-0.640, 3.299e-6
-0.641, 3.286e-6
-0.642, 3.263e-6
-0.643, 3.252e-6
-0.644, 3.250e-6
-0.645, 3.227e-6
-0.646, 3.211e-6
-0.647, 3.209e-6
-0.648, 3.191e-6
-0.649, 3.170e-6
-0.650, 3.165e-6
-0.651, 3.154e-6
-0.652, 3.131e-6
-0.653, 3.117e-6
-0.654, 3.113e-6
-0.655, 3.090e-6
-0.656, 3.069e-6
-0.657, 3.066e-6
-0.658, 3.045e-6
-0.659, 3.021e-6
-0.660, 3.017e-6
-0.661, 3.007e-6
-0.662, 2.983e-6
-0.663, 2.971e-6
-0.664, 2.965e-6
-0.665, 2.942e-6
-0.666, 2.922e-6
-0.667, 2.919e-6
-0.668, 2.899e-6
-0.669, 2.877e-6
-0.670, 2.870e-6
-0.671, 2.858e-6
-0.672, 2.828e-6
-0.673, 2.814e-6
-0.674, 2.809e-6
-0.675, 2.782e-6
-0.676, 2.766e-6
-0.677, 2.763e-6
-0.678, 2.743e-6
-0.679, 2.718e-6
-0.680, 2.712e-6
-0.681, 2.698e-6
-0.682, 2.671e-6
-0.683, 2.656e-6
-0.684, 2.649e-6
-0.685, 2.622e-6
-0.686, 2.600e-6
-0.687, 2.593e-6
-0.688, 2.571e-6
-0.689, 2.543e-6
-0.690, 2.535e-6
-0.691, 2.521e-6
-0.692, 2.493e-6
-0.693, 2.478e-6
-0.694, 2.469e-6
-0.695, 2.438e-6
-0.696, 2.413e-6
-0.697, 2.406e-6
-0.698, 2.381e-6
-0.699, 2.352e-6
-0.700, 2.338e-6
-0.701, 2.320e-6
-0.702, 2.288e-6
-0.703, 2.270e-6
-0.704, 2.257e-6
-0.705, 2.228e-6
-0.706, 2.199e-6
-0.707, 2.189e-6
-0.708, 2.162e-6
-0.709, 2.130e-6
-0.710, 2.113e-6
-0.711, 2.091e-6
-0.712, 2.052e-6
-0.713, 2.032e-6
-0.714, 2.017e-6
-0.715, 1.982e-6
-0.716, 1.955e-6
-0.717, 1.932e-6
-0.718, 1.900e-6
-0.719, 1.863e-6
-0.720, 1.841e-6
-0.721, 1.811e-6
-0.722, 1.774e-6
-0.723, 1.747e-6
-0.724, 1.727e-6
-0.725, 1.684e-6
-0.726, 1.648e-6
-0.727, 1.623e-6
-0.728, 1.581e-6
-0.729, 1.538e-6
-0.730, 1.511e-6
-0.731, 1.476e-6
-0.732, 1.431e-6
-0.733, 1.392e-6
-0.734, 1.358e-6
-0.735, 1.308e-6
-0.736, 1.267e-6
-0.737, 1.235e-6
-0.738, 1.187e-6
-0.739, 1.135e-6
-0.740, 1.097e-6
-0.741, 1.047e-6
-0.742, 9.977e-7
-0.743, 9.496e-7
-0.744, 9.013e-7
-0.745, 8.382e-7
-0.746, 7.868e-7
-0.747, 7.396e-7
-0.748, 6.805e-7
-0.749, 6.140e-7
-0.750, 5.552e-7
-0.751, 4.963e-7
-0.752, 4.307e-7
-0.753, 3.675e-7
-0.754, 3.068e-7
-0.755, 2.330e-7
-0.756, 1.612e-7
-0.757, 9.156e-8
-0.758, 1.322e-8
-0.759, -7.009e-8
-0.760, -1.453e-7
-0.761, -2.202e-7
-0.762, -3.100e-7
-0.763, -4.000e-7
-0.764, -4.807e-7
-0.765, -5.773e-7
-0.766, -6.682e-7
-0.767, -7.580e-7
-0.768, -8.757e-7
-0.769, -9.787e-7
-0.770, -1.080e-6
-0.771, -1.184e-6
-0.772, -1.298e-6
-0.773, -1.414e-6
-0.774, -1.525e-6
-0.775, -1.653e-6
-0.776, -1.775e-6
-0.777, -1.899e-6
-0.778, -2.034e-6
-0.779, -2.171e-6
-0.780, -2.307e-6
-0.781, -2.453e-6
-0.782, -2.605e-6
-0.783, -2.757e-6
-0.784, -2.911e-6
-0.785, -3.075e-6
-0.786, -3.240e-6
-0.787, -3.403e-6
-0.788, -3.582e-6
-0.789, -3.762e-6
-0.790, -3.947e-6
-0.791, -4.134e-6
-0.792, -4.333e-6
-0.793, -4.526e-6
-0.794, -4.715e-6
-0.795, -4.939e-6
-0.796, -5.153e-6
-0.797, -5.372e-6
-0.798, -5.606e-6
-0.799, -5.830e-6
-0.800, -6.071e-6
-0.801, -6.317e-6
-0.802, -6.570e-6
-0.803, -6.824e-6
-0.804, -7.094e-6
-0.805, -7.370e-6
-0.806, -7.636e-6
-0.807, -7.922e-6
-0.808, -8.221e-6
-0.809, -8.502e-6
-0.810, -8.802e-6
-0.811, -9.127e-6
-0.812, -9.438e-6
-0.813, -9.750e-6
-0.814, -1.008e-5
-0.815, -1.043e-5
-0.816, -1.076e-5
-0.817, -1.112e-5
-0.818, -1.149e-5
-0.819, -1.179e-5
-0.820, -1.214e-5
-0.821, -1.254e-5
-0.822, -1.292e-5
-0.823, -1.331e-5
-0.824, -1.373e-5
-0.825, -1.413e-5
-0.826, -1.453e-5
-0.827, -1.497e-5
-0.828, -1.540e-5
-0.829, -1.583e-5
-0.830, -1.626e-5
-0.831, -1.673e-5
-0.832, -1.718e-5
-0.833, -1.763e-5
-0.834, -1.811e-5
-0.835, -1.858e-5
-0.836, -1.904e-5
-0.837, -1.955e-5
-0.838, -2.005e-5
-0.839, -2.052e-5
-0.840, -2.103e-5
-0.841, -2.156e-5
-0.842, -2.206e-5
-0.843, -2.258e-5
-0.844, -2.310e-5
-0.845, -2.359e-5
-0.846, -2.411e-5
-0.847, -2.467e-5
-0.848, -2.521e-5
-0.849, -2.573e-5
-0.850, -2.629e-5
-0.851, -2.687e-5
-0.852, -2.740e-5
-0.853, -2.796e-5
-0.854, -2.853e-5
-0.855, -2.909e-5
-0.856, -2.965e-5
-0.857, -3.023e-5
-0.858, -3.081e-5
-0.859, -3.136e-5
-0.860, -3.192e-5
-0.861, -3.251e-5
-0.862, -3.306e-5
-0.863, -3.362e-5
-0.864, -3.420e-5
-0.865, -3.476e-5
-0.866, -3.531e-5
-0.867, -3.589e-5
-0.868, -3.646e-5
-0.869, -3.702e-5
-0.870, -3.759e-5
-0.871, -3.820e-5
-0.872, -3.873e-5
-0.873, -3.926e-5
-0.874, -3.984e-5
-0.875, -4.035e-5
-0.876, -4.086e-5
-0.877, -4.139e-5
-0.878, -4.194e-5
-0.879, -4.245e-5
-0.880, -4.296e-5
-0.881, -4.348e-5
-0.882, -4.398e-5
-0.883, -4.448e-5
-0.884, -4.498e-5
-0.885, -4.548e-5
-0.886, -4.594e-5
-0.887, -4.643e-5
-0.888, -4.691e-5
-0.889, -4.735e-5
-0.890, -4.779e-5
-0.891, -4.823e-5
-0.892, -4.865e-5
-0.893, -4.906e-5
-0.894, -4.950e-5
-0.895, -4.991e-5
-0.896, -5.026e-5
-0.897, -5.065e-5
-0.898, -5.106e-5
-0.899, -5.141e-5
-0.900, -5.178e-5
-0.901, -5.216e-5
-0.902, -5.250e-5
-0.903, -5.282e-5
-0.904, -5.317e-5
-0.905, -5.349e-5
-0.906, -5.379e-5
-0.907, -5.412e-5
-0.908, -5.442e-5
-0.909, -5.470e-5
-0.910, -5.498e-5
-0.911, -5.527e-5
-0.912, -5.550e-5
-0.913, -5.573e-5
-0.914, -5.600e-5
-0.915, -5.623e-5
-0.916, -5.643e-5
-0.917, -5.667e-5
-0.918, -5.687e-5
-0.919, -5.704e-5
-0.920, -5.724e-5
-0.921, -5.744e-5
-0.922, -5.764e-5
-0.923, -5.780e-5
-0.924, -5.796e-5
-0.925, -5.811e-5
-0.926, -5.824e-5
-0.927, -5.837e-5
-0.928, -5.850e-5
-0.929, -5.860e-5
-0.930, -5.871e-5
-0.931, -5.882e-5
-0.932, -5.891e-5
-0.933, -5.900e-5
-0.934, -5.909e-5
-0.935, -5.917e-5
-0.936, -5.924e-5
-0.937, -5.930e-5
-0.938, -5.936e-5
-0.939, -5.940e-5
-0.940, -5.946e-5
-0.941, -5.950e-5
-0.942, -5.953e-5
-0.943, -5.955e-5
-0.944, -5.957e-5
-0.945, -5.959e-5
-0.946, -5.960e-5
-0.947, -5.959e-5
-0.948, -5.959e-5
-0.949, -5.958e-5
-0.950, -5.958e-5
-0.951, -5.957e-5
-0.952, -5.956e-5
-0.953, -5.953e-5
-0.954, -5.951e-5
-0.955, -5.949e-5
-0.956, -5.944e-5
-0.957, -5.941e-5
-0.958, -5.938e-5
-0.959, -5.933e-5
-0.960, -5.928e-5
-0.961, -5.923e-5
-0.962, -5.918e-5
-0.963, -5.911e-5
-0.964, -5.905e-5
-0.965, -5.900e-5
-0.966, -5.891e-5
-0.967, -5.885e-5
-0.968, -5.878e-5
-0.969, -5.870e-5
-0.970, -5.862e-5
-0.971, -5.855e-5
-0.972, -5.847e-5
-0.973, -5.839e-5
-0.974, -5.830e-5
-0.975, -5.821e-5
-0.976, -5.811e-5
-0.977, -5.802e-5
-0.978, -5.793e-5
-0.979, -5.782e-5
-0.980, -5.772e-5
-0.981, -5.762e-5
-0.982, -5.752e-5
-0.983, -5.741e-5
-0.984, -5.730e-5
-0.985, -5.720e-5
-0.986, -5.709e-5
-0.987, -5.698e-5
-0.988, -5.687e-5
-0.989, -5.676e-5
-0.990, -5.664e-5
-0.991, -5.653e-5
-0.992, -5.642e-5
-0.993, -5.630e-5
-0.994, -5.619e-5
-0.995, -5.607e-5
-0.996, -5.595e-5
-0.997, -5.583e-5
-0.998, -5.570e-5
-0.999, -5.558e-5
-1.000, -5.546e-5
-1.001, -5.535e-5
-1.002, -5.522e-5
-1.003, -5.510e-5
-1.004, -5.497e-5
-1.005, -5.486e-5
-1.006, -5.473e-5
-1.007, -5.461e-5
-1.008, -5.449e-5
-1.009, -5.437e-5
-1.010, -5.424e-5
-1.011, -5.412e-5
-1.012, -5.400e-5
-1.013, -5.388e-5
-1.014, -5.375e-5
-1.015, -5.364e-5
-1.016, -5.351e-5
-1.017, -5.338e-5
-1.018, -5.326e-5
-1.019, -5.315e-5
-1.020, -5.302e-5
-1.021, -5.290e-5
-1.022, -5.277e-5
-1.023, -5.266e-5
-1.024, -5.253e-5
-1.025, -5.242e-5
-1.026, -5.231e-5
-1.027, -5.218e-5
-1.028, -5.206e-5
-1.029, -5.195e-5
-1.030, -5.182e-5
-1.031, -5.171e-5
-1.032, -5.159e-5
-1.033, -5.147e-5
-1.034, -5.135e-5
-1.035, -5.124e-5
-1.036, -5.113e-5
-1.037, -5.101e-5
-1.038, -5.090e-5
-1.039, -5.078e-5
-1.040, -5.066e-5
-1.041, -5.055e-5
-1.042, -5.044e-5
-1.043, -5.033e-5
-1.044, -5.021e-5
-1.045, -5.011e-5
-1.046, -5.000e-5
-1.047, -4.988e-5
-1.048, -4.978e-5
-1.049, -4.967e-5
-1.050, -4.955e-5
-1.051, -4.944e-5
-1.052, -4.934e-5
-1.053, -4.924e-5
-1.054, -4.913e-5
-1.055, -4.903e-5
-1.056, -4.892e-5
-1.057, -4.882e-5
-1.058, -4.871e-5
-1.059, -4.862e-5
-1.060, -4.851e-5
-1.061, -4.841e-5
-1.062, -4.833e-5
-1.063, -4.822e-5
-1.064, -4.812e-5
-1.065, -4.803e-5
-1.066, -4.793e-5
-1.067, -4.782e-5
-1.068, -4.773e-5
-1.069, -4.764e-5
-1.070, -4.754e-5
-1.071, -4.744e-5
-1.072, -4.736e-5
-1.073, -4.726e-5
-1.074, -4.716e-5
-1.075, -4.709e-5
-1.076, -4.699e-5
-1.077, -4.689e-5
-1.078, -4.680e-5
-1.079, -4.672e-5
-1.080, -4.662e-5
-1.081, -4.653e-5
-1.082, -4.645e-5
-1.083, -4.636e-5
-1.084, -4.627e-5
-1.085, -4.619e-5
-1.086, -4.611e-5
-1.087, -4.601e-5
-1.088, -4.593e-5
-1.089, -4.586e-5
-1.090, -4.576e-5
-1.091, -4.568e-5
-1.092, -4.560e-5
-1.093, -4.552e-5
-1.094, -4.543e-5
-1.095, -4.536e-5
-1.096, -4.528e-5
-1.097, -4.519e-5
-1.098, -4.512e-5
-1.099, -4.504e-5
-1.100, -4.496e-5
-1.101, -4.488e-5
-1.102, -4.481e-5
-1.103, -4.473e-5
-1.104, -4.465e-5
-1.105, -4.459e-5
-1.106, -4.451e-5
-1.107, -4.443e-5
-1.108, -4.436e-5
-1.109, -4.429e-5
-1.110, -4.421e-5
-1.111, -4.414e-5
-1.112, -4.407e-5
-1.113, -4.400e-5
-1.114, -4.392e-5
-1.115, -4.386e-5
-1.116, -4.379e-5
-1.117, -4.371e-5
-1.118, -4.365e-5
-1.119, -4.359e-5
-1.120, -4.351e-5
-1.121, -4.345e-5
-1.122, -4.339e-5
-1.123, -4.332e-5
-1.124, -4.324e-5
-1.125, -4.319e-5
-1.126, -4.312e-5
-1.127, -4.305e-5
-1.128, -4.299e-5
-1.129, -4.294e-5
-1.130, -4.286e-5
-1.131, -4.279e-5
-1.132, -4.274e-5
-1.133, -4.267e-5
-1.134, -4.260e-5
-1.135, -4.255e-5
-1.136, -4.249e-5
-1.137, -4.242e-5
-1.138, -4.236e-5
-1.139, -4.231e-5
-1.140, -4.225e-5
-1.141, -4.219e-5
-1.142, -4.214e-5
-1.143, -4.207e-5
-1.144, -4.201e-5
-1.145, -4.196e-5
-1.146, -4.190e-5
-1.147, -4.184e-5
-1.148, -4.178e-5
-1.149, -4.174e-5
-1.150, -4.167e-5
-1.151, -4.161e-5
-1.152, -4.156e-5
-1.153, -4.151e-5
-1.154, -4.144e-5
-1.155, -4.140e-5
-1.156, -4.135e-5
-1.157, -4.129e-5
-1.158, -4.124e-5
-1.159, -4.119e-5
-1.160, -4.113e-5
-1.161, -4.108e-5
-1.162, -4.104e-5
-1.163, -4.099e-5
-1.164, -4.092e-5
-1.165, -4.088e-5
-1.166, -4.084e-5
-1.167, -4.078e-5
-1.168, -4.073e-5
-1.169, -4.069e-5
-1.170, -4.063e-5
-1.171, -4.058e-5
-1.172, -4.055e-5
-1.173, -4.049e-5
-1.174, -4.044e-5
-1.175, -4.040e-5
-1.176, -4.035e-5
-1.177, -4.030e-5
-1.178, -4.026e-5
-1.179, -4.022e-5
-1.180, -4.016e-5
-1.181, -4.011e-5
-1.182, -4.008e-5
-1.183, -4.003e-5
-1.184, -3.998e-5
-1.185, -3.994e-5
-1.186, -3.990e-5
-1.187, -3.985e-5
-1.188, -3.981e-5
-1.189, -3.977e-5
-1.190, -3.972e-5
-1.191, -3.967e-5
-1.192, -3.964e-5
-1.193, -3.960e-5
-1.194, -3.955e-5
-1.195, -3.952e-5
-1.196, -3.948e-5
-1.197, -3.942e-5
-1.198, -3.939e-5
-1.199, -3.935e-5
-1.200, -3.924e-5
-1.199, -3.910e-5
-1.198, -3.901e-5
-1.197, -3.892e-5
-1.196, -3.883e-5
-1.195, -3.876e-5
-1.194, -3.868e-5
-1.193, -3.860e-5
-1.192, -3.853e-5
-1.191, -3.846e-5
-1.190, -3.839e-5
-1.189, -3.832e-5
-1.188, -3.826e-5
-1.187, -3.819e-5
-1.186, -3.812e-5
-1.185, -3.806e-5
-1.184, -3.800e-5
-1.183, -3.793e-5
-1.182, -3.787e-5
-1.181, -3.781e-5
-1.180, -3.774e-5
-1.179, -3.768e-5
-1.178, -3.763e-5
-1.177, -3.757e-5
-1.176, -3.750e-5
-1.175, -3.745e-5
-1.174, -3.739e-5
-1.173, -3.733e-5
-1.172, -3.727e-5
-1.171, -3.722e-5
-1.170, -3.716e-5
-1.169, -3.710e-5
-1.168, -3.706e-5
-1.167, -3.699e-5
-1.166, -3.693e-5
-1.165, -3.689e-5
-1.164, -3.684e-5
-1.163, -3.678e-5
-1.162, -3.673e-5
-1.161, -3.668e-5
-1.160, -3.662e-5
-1.159, -3.656e-5
-1.158, -3.652e-5
-1.157, -3.647e-5
-1.156, -3.641e-5
-1.155, -3.637e-5
-1.154, -3.632e-5
-1.153, -3.626e-5
-1.152, -3.621e-5
-1.151, -3.617e-5
-1.150, -3.611e-5
-1.149, -3.606e-5
-1.148, -3.602e-5
-1.147, -3.597e-5
-1.146, -3.591e-5
-1.145, -3.587e-5
-1.144, -3.582e-5
-1.143, -3.577e-5
-1.142, -3.572e-5
-1.141, -3.568e-5
-1.140, -3.563e-5
-1.139, -3.557e-5
-1.138, -3.554e-5
-1.137, -3.549e-5
-1.136, -3.543e-5
-1.135, -3.539e-5
-1.134, -3.535e-5
-1.133, -3.529e-5
-1.132, -3.525e-5
-1.131, -3.521e-5
-1.130, -3.516e-5
-1.129, -3.511e-5
-1.128, -3.508e-5
-1.127, -3.502e-5
-1.126, -3.497e-5
-1.125, -3.494e-5
-1.124, -3.489e-5
-1.123, -3.483e-5
-1.122, -3.479e-5
-1.121, -3.476e-5
-1.120, -3.470e-5
-1.119, -3.466e-5
-1.118, -3.463e-5
-1.117, -3.458e-5
-1.116, -3.452e-5
-1.115, -3.449e-5
-1.114, -3.445e-5
-1.113, -3.440e-5
-1.112, -3.436e-5
-1.111, -3.432e-5
-1.110, -3.427e-5
-1.109, -3.422e-5
-1.108, -3.419e-5
-1.107, -3.414e-5
-1.106, -3.409e-5
-1.105, -3.406e-5
-1.104, -3.401e-5
-1.103, -3.396e-5
-1.102, -3.392e-5
-1.101, -3.388e-5
-1.100, -3.383e-5
-1.099, -3.379e-5
-1.098, -3.376e-5
-1.097, -3.371e-5
-1.096, -3.366e-5
-1.095, -3.363e-5
-1.094, -3.358e-5
-1.093, -3.353e-5
-1.092, -3.349e-5
-1.091, -3.346e-5
-1.090, -3.341e-5
-1.089, -3.336e-5
-1.088, -3.333e-5
-1.087, -3.328e-5
-1.086, -3.323e-5
-1.085, -3.320e-5
-1.084, -3.316e-5
-1.083, -3.310e-5
-1.082, -3.306e-5
-1.081, -3.303e-5
-1.080, -3.298e-5
-1.079, -3.294e-5
-1.078, -3.290e-5
-1.077, -3.286e-5
-1.076, -3.281e-5
-1.075, -3.277e-5
-1.074, -3.273e-5
-1.073, -3.268e-5
-1.072, -3.264e-5
-1.071, -3.260e-5
-1.070, -3.255e-5
-1.069, -3.251e-5
-1.068, -3.247e-5
-1.067, -3.242e-5
-1.066, -3.237e-5
-1.065, -3.234e-5
-1.064, -3.229e-5
-1.063, -3.224e-5
-1.062, -3.220e-5
-1.061, -3.216e-5
-1.060, -3.211e-5
-1.059, -3.206e-5
-1.058, -3.202e-5
-1.057, -3.198e-5
-1.056, -3.192e-5
-1.055, -3.189e-5
-1.054, -3.184e-5
-1.053, -3.179e-5
-1.052, -3.176e-5
-1.051, -3.171e-5
-1.050, -3.166e-5
-1.049, -3.161e-5
-1.048, -3.157e-5
-1.047, -3.152e-5
-1.046, -3.147e-5
-1.045, -3.142e-5
-1.044, -3.138e-5
-1.043, -3.132e-5
-1.042, -3.128e-5
-1.041, -3.123e-5
-1.040, -3.117e-5
-1.039, -3.112e-5
-1.038, -3.108e-5
-1.037, -3.103e-5
-1.036, -3.097e-5
-1.035, -3.092e-5
-1.034, -3.088e-5
-1.033, -3.082e-5
-1.032, -3.077e-5
-1.031, -3.072e-5
-1.030, -3.065e-5
-1.029, -3.060e-5
-1.028, -3.056e-5
-1.027, -3.050e-5
-1.026, -3.044e-5
-1.025, -3.039e-5
-1.024, -3.033e-5
-1.023, -3.027e-5
-1.022, -3.021e-5
-1.021, -3.016e-5
-1.020, -3.009e-5
-1.019, -3.003e-5
-1.018, -2.998e-5
-1.017, -2.991e-5
-1.016, -2.984e-5
-1.015, -2.979e-5
-1.014, -2.973e-5
-1.013, -2.965e-5
-1.012, -2.959e-5
-1.011, -2.953e-5
-1.010, -2.945e-5
-1.009, -2.939e-5
-1.008, -2.933e-5
-1.007, -2.925e-5
-1.006, -2.917e-5
-1.005, -2.911e-5
-1.004, -2.904e-5
-1.003, -2.896e-5
-1.002, -2.889e-5
-1.001, -2.882e-5
-1.000, -2.873e-5
-0.999, -2.865e-5
-0.998, -2.859e-5
-0.997, -2.850e-5
-0.996, -2.841e-5
-0.995, -2.834e-5
-0.994, -2.825e-5
-0.993, -2.815e-5
-0.992, -2.807e-5
-0.991, -2.798e-5
-0.990, -2.789e-5
-0.989, -2.779e-5
-0.988, -2.770e-5
-0.987, -2.760e-5
-0.986, -2.750e-5
-0.985, -2.740e-5
-0.984, -2.730e-5
-0.983, -2.718e-5
-0.982, -2.708e-5
-0.981, -2.698e-5
-0.980, -2.686e-5
-0.979, -2.675e-5
-0.978, -2.664e-5
-0.977, -2.651e-5
-0.976, -2.640e-5
-0.975, -2.627e-5
-0.974, -2.614e-5
-0.973, -2.601e-5
-0.972, -2.588e-5
-0.971, -2.574e-5
-0.970, -2.561e-5
-0.969, -2.547e-5
-0.968, -2.533e-5
-0.967, -2.519e-5
-0.966, -2.504e-5
-0.965, -2.490e-5
-0.964, -2.474e-5
-0.963, -2.458e-5
-0.962, -2.442e-5
-0.961, -2.426e-5
-0.960, -2.409e-5
-0.959, -2.392e-5
-0.958, -2.374e-5
-0.957, -2.356e-5
-0.956, -2.338e-5
-0.955, -2.319e-5
-0.954, -2.300e-5
-0.953, -2.281e-5
-0.952, -2.262e-5
-0.951, -2.241e-5
-0.950, -2.220e-5
-0.949, -2.199e-5
-0.948, -2.177e-5
-0.947, -2.157e-5
-0.946, -2.134e-5
-0.945, -2.112e-5
-0.944, -2.087e-5
-0.943, -2.064e-5
-0.942, -2.040e-5
-0.941, -2.015e-5
-0.940, -1.989e-5
-0.939, -1.963e-5
-0.938, -1.936e-5
-0.937, -1.908e-5
-0.936, -1.880e-5
-0.935, -1.852e-5
-0.934, -1.822e-5
-0.933, -1.793e-5
-0.932, -1.763e-5
-0.931, -1.732e-5
-0.930, -1.701e-5
-0.929, -1.670e-5
-0.928, -1.637e-5
-0.927, -1.604e-5
-0.926, -1.570e-5
-0.925, -1.537e-5
-0.924, -1.501e-5
-0.923, -1.465e-5
-0.922, -1.428e-5
-0.921, -1.387e-5
-0.920, -1.350e-5
-0.919, -1.314e-5
-0.918, -1.275e-5
-0.917, -1.233e-5
-0.916, -1.193e-5
-0.915, -1.153e-5
-0.914, -1.109e-5
-0.913, -1.067e-5
-0.912, -1.024e-5
-0.911, -9.791e-6
-0.910, -9.347e-6
-0.909, -8.903e-6
-0.908, -8.429e-6
-0.907, -7.936e-6
-0.906, -7.483e-6
-0.905, -7.000e-6
-0.904, -6.484e-6
-0.903, -6.017e-6
-0.902, -5.534e-6
-0.901, -5.005e-6
-0.900, -4.485e-6
-0.899, -3.980e-6
-0.898, -3.438e-6
-0.897, -2.897e-6
-0.896, -2.405e-6
-0.895, -1.873e-6
-0.894, -1.279e-6
-0.893, -7.386e-7
-0.892, -1.959e-7
-0.891, 4.117e-7
-0.890, 9.664e-7
-0.889, 1.514e-6
-0.888, 2.118e-6
-0.887, 2.715e-6
-0.886, 3.280e-6
-0.885, 3.889e-6
-0.884, 4.512e-6
-0.883, 5.111e-6
-0.882, 5.693e-6
-0.881, 6.321e-6
-0.880, 6.924e-6
-0.879, 7.514e-6
-0.878, 8.165e-6
-0.877, 8.770e-6
-0.876, 9.346e-6
-0.875, 9.990e-6
-0.874, 1.063e-5
-0.873, 1.122e-5
-0.872, 1.183e-5
-0.871, 1.248e-5
-0.870, 1.316e-5
-0.869, 1.373e-5
-0.868, 1.436e-5
-0.867, 1.496e-5
-0.866, 1.551e-5
-0.865, 1.613e-5
-0.864, 1.675e-5
-0.863, 1.731e-5
-0.862, 1.789e-5
-0.861, 1.849e-5
-0.860, 1.906e-5
-0.859, 1.962e-5
-0.858, 2.019e-5
-0.857, 2.077e-5
-0.856, 2.130e-5
-0.855, 2.183e-5
-0.854, 2.239e-5
-0.853, 2.289e-5
-0.852, 2.339e-5
-0.851, 2.392e-5
-0.850, 2.440e-5
-0.849, 2.487e-5
-0.848, 2.536e-5
-0.847, 2.583e-5
-0.846, 2.627e-5
-0.845, 2.668e-5
-0.844, 2.710e-5
-0.843, 2.751e-5
-0.842, 2.789e-5
-0.841, 2.833e-5
-0.840, 2.871e-5
-0.839, 2.904e-5
-0.838, 2.941e-5
-0.837, 2.975e-5
-0.836, 3.004e-5
-0.835, 3.036e-5
-0.834, 3.068e-5
-0.833, 3.094e-5
-0.832, 3.121e-5
-0.831, 3.148e-5
-0.830, 3.171e-5
-0.829, 3.191e-5
-0.828, 3.215e-5
-0.827, 3.236e-5
-0.826, 3.251e-5
-0.825, 3.269e-5
-0.824, 3.285e-5
-0.823, 3.296e-5
-0.822, 3.307e-5
-0.821, 3.320e-5
-0.820, 3.329e-5
-0.819, 3.324e-5
-0.818, 3.333e-5
-0.817, 3.342e-5
-0.816, 3.343e-5
-0.815, 3.347e-5
-0.814, 3.352e-5
-0.813, 3.350e-5
-0.812, 3.348e-5
-0.811, 3.349e-5
-0.810, 3.345e-5
-0.809, 3.339e-5
-0.808, 3.336e-5
-0.807, 3.331e-5
-0.806, 3.322e-5
-0.805, 3.315e-5
-0.804, 3.307e-5
-0.803, 3.294e-5
-0.802, 3.282e-5
-0.801, 3.272e-5
-0.800, 3.258e-5
-0.799, 3.242e-5
-0.798, 3.230e-5
-0.797, 3.215e-5
-0.796, 3.198e-5
-0.795, 3.183e-5
-0.794, 3.165e-5
-0.793, 3.145e-5
-0.792, 3.128e-5
-0.791, 3.110e-5
-0.790, 3.092e-5
-0.789, 3.071e-5
-0.788, 3.053e-5
-0.787, 3.033e-5
-0.786, 3.011e-5
-0.785, 2.991e-5
-0.784, 2.971e-5
-0.783, 2.950e-5
-0.782, 2.928e-5
-0.781, 2.908e-5
-0.780, 2.886e-5
-0.779, 2.864e-5
-0.778, 2.842e-5
-0.777, 2.820e-5
-0.776, 2.797e-5
-0.775, 2.775e-5
-0.774, 2.753e-5
-0.773, 2.730e-5
-0.772, 2.708e-5
-0.771, 2.686e-5
-0.770, 2.664e-5
-0.769, 2.641e-5
-0.768, 2.621e-5
-0.767, 2.599e-5
-0.766, 2.577e-5
-0.765, 2.554e-5
-0.764, 2.533e-5
-0.763, 2.512e-5
-0.762, 2.490e-5
-0.761, 2.468e-5
-0.760, 2.447e-5
-0.759, 2.425e-5
-0.758, 2.405e-5
-0.757, 2.384e-5
-0.756, 2.364e-5
-0.755, 2.343e-5
-0.754, 2.323e-5
-0.753, 2.303e-5
-0.752, 2.283e-5
-0.751, 2.263e-5
-0.750, 2.244e-5
-0.749, 2.225e-5
-0.748, 2.205e-5
-0.747, 2.187e-5
-0.746, 2.168e-5
-0.745, 2.149e-5
-0.744, 2.131e-5
-0.743, 2.114e-5
-0.742, 2.095e-5
-0.741, 2.077e-5
-0.740, 2.061e-5
-0.739, 2.043e-5
-0.738, 2.026e-5
-0.737, 2.009e-5
-0.736, 1.993e-5
-0.735, 1.976e-5
-0.734, 1.960e-5
-0.733, 1.944e-5
-0.732, 1.928e-5
-0.731, 1.911e-5
-0.730, 1.897e-5
-0.729, 1.881e-5
-0.728, 1.866e-5
-0.727, 1.851e-5
-0.726, 1.837e-5
-0.725, 1.822e-5
-0.724, 1.807e-5
-0.723, 1.794e-5
-0.722, 1.779e-5
-0.721, 1.765e-5
-0.720, 1.752e-5
-0.719, 1.739e-5
-0.718, 1.725e-5
-0.717, 1.712e-5
-0.716, 1.700e-5
-0.715, 1.686e-5
-0.714, 1.673e-5
-0.713, 1.662e-5
-0.712, 1.649e-5
-0.711, 1.636e-5
-0.710, 1.625e-5
-0.709, 1.612e-5
-0.708, 1.600e-5
-0.707, 1.589e-5
-0.706, 1.578e-5
-0.705, 1.566e-5
-0.704, 1.554e-5
-0.703, 1.544e-5
-0.702, 1.533e-5
-0.701, 1.521e-5
-0.700, 1.511e-5
-0.699, 1.501e-5
-0.698, 1.490e-5
-0.697, 1.480e-5
-0.696, 1.470e-5
-0.695, 1.459e-5
-0.694, 1.449e-5
-0.693, 1.440e-5
-0.692, 1.430e-5
-0.691, 1.419e-5
-0.690, 1.411e-5
-0.689, 1.401e-5
-0.688, 1.391e-5
-0.687, 1.383e-5
-0.686, 1.374e-5
-0.685, 1.365e-5
-0.684, 1.355e-5
-0.683, 1.347e-5
-0.682, 1.339e-5
-0.681, 1.329e-5
-0.680, 1.322e-5
-0.679, 1.313e-5
-0.678, 1.304e-5
-0.677, 1.296e-5
-0.676, 1.289e-5
-0.675, 1.280e-5
-0.674, 1.272e-5
-0.673, 1.265e-5
-0.672, 1.257e-5
-0.671, 1.248e-5
-0.670, 1.241e-5
-0.669, 1.234e-5
-0.668, 1.225e-5
-0.667, 1.218e-5
-0.666, 1.212e-5
-0.665, 1.204e-5
-0.664, 1.196e-5
-0.663, 1.190e-5
-0.662, 1.183e-5
-0.661, 1.175e-5
-0.660, 1.169e-5
-0.659, 1.162e-5
-0.658, 1.154e-5
-0.657, 1.148e-5
-0.656, 1.143e-5
-0.655, 1.135e-5
-0.654, 1.128e-5
-0.653, 1.123e-5
-0.652, 1.116e-5
-0.651, 1.109e-5
-0.650, 1.104e-5
-0.649, 1.098e-5
-0.648, 1.091e-5
-0.647, 1.085e-5
-0.646, 1.080e-5
-0.645, 1.073e-5
-0.644, 1.067e-5
-0.643, 1.062e-5
-0.642, 1.056e-5
-0.641, 1.050e-5
-0.640, 1.045e-5
-0.639, 1.039e-5
-0.638, 1.032e-5
-0.637, 1.028e-5
-0.636, 1.023e-5
-0.635, 1.017e-5
-0.634, 1.011e-5
-0.633, 1.007e-5
-0.632, 1.001e-5
-0.631, 9.953e-6
-0.630, 9.911e-6
-0.629, 9.863e-6
-0.628, 9.808e-6
-0.627, 9.763e-6
-0.626, 9.722e-6
-0.625, 9.661e-6
-0.624, 9.608e-6
-0.623, 9.574e-6
-0.622, 9.528e-6
-0.621, 9.470e-6
-0.620, 9.433e-6
-0.619, 9.390e-6
-0.618, 9.330e-6
-0.617, 9.292e-6
-0.616, 9.256e-6
-0.615, 9.202e-6
-0.614, 9.156e-6
-0.613, 9.121e-6
-0.612, 9.078e-6
-0.611, 9.029e-6
-0.610, 8.995e-6
-0.609, 8.958e-6
-0.608, 8.903e-6
-0.607, 8.868e-6
-0.606, 8.837e-6
-0.605, 8.790e-6
-0.604, 8.746e-6
-0.603, 8.720e-6
-0.602, 8.676e-6
-0.601, 8.626e-6
-0.600, 8.603e-6
-0.599, 8.572e-6
-0.598, 8.523e-6
-0.597, 8.494e-6
-0.596, 8.466e-6
-0.595, 8.420e-6
-0.594, 8.384e-6
-0.593, 8.362e-6
-0.592, 8.327e-6
-0.591, 8.284e-6
-0.590, 8.262e-6
-0.589, 8.231e-6
-0.588, 8.189e-6
-0.587, 8.160e-6
-0.586, 8.138e-6
-0.585, 8.103e-6
-0.584, 8.073e-6
-0.583, 8.056e-6
-0.582, 8.023e-6
-0.581, 7.988e-6
-0.580, 7.972e-6
-0.579, 7.947e-6
-0.578, 7.909e-6
-0.577, 7.886e-6
-0.576, 7.873e-6
-0.575, 7.842e-6
-0.574, 7.817e-6
-0.573, 7.806e-6
-0.572, 7.780e-6
-0.571, 7.754e-6
-0.570, 7.741e-6
-0.569, 7.725e-6
-0.568, 7.695e-6
-0.567, 7.678e-6
-0.566, 7.672e-6
-0.565, 7.649e-6
-0.564, 7.636e-6
-0.563, 7.636e-6
-0.562, 7.622e-6
-0.561, 7.604e-6
-0.560, 7.605e-6
-0.559, 7.599e-6
-0.558, 7.586e-6
-0.557, 7.585e-6
-0.556, 7.590e-6
-0.555, 7.582e-6
-0.554, 7.580e-6
-0.553, 7.592e-6
-0.552, 7.596e-6
-0.551, 7.597e-6
-0.550, 7.613e-6
-0.549, 7.627e-6
-0.548, 7.632e-6
-0.547, 7.652e-6
-0.546, 7.680e-6
-0.545, 7.700e-6
-0.544, 7.726e-6
-0.543, 7.767e-6
-0.542, 7.801e-6
-0.541, 7.831e-6
-0.540, 7.879e-6
-0.539, 7.931e-6
-0.538, 7.970e-6
-0.537, 8.028e-6
-0.536, 8.093e-6
-0.535, 8.145e-6
-0.534, 8.216e-6
-0.533, 8.297e-6
-0.532, 8.368e-6
-0.531, 8.440e-6
-0.530, 8.532e-6
-0.529, 8.618e-6
-0.528, 8.705e-6
-0.527, 8.806e-6
-0.526, 8.911e-6
-0.525, 9.007e-6
-0.524, 9.112e-6
-0.523, 9.231e-6
-0.522, 9.336e-6
-0.521, 9.449e-6
-0.520, 9.578e-6
-0.519, 9.697e-6
-0.518, 9.813e-6
-0.517, 9.946e-6
-0.516, 1.008e-5
-0.515, 1.020e-5
-0.514, 1.034e-5
-0.513, 1.049e-5
-0.512, 1.064e-5
-0.511, 1.079e-5
-0.510, 1.095e-5
-0.509, 1.110e-5
-0.508, 1.125e-5
-0.507, 1.142e-5
-0.506, 1.158e-5
-0.505, 1.175e-5
-0.504, 1.192e-5
-0.503, 1.210e-5
-0.502, 1.227e-5
-0.501, 1.246e-5
-0.500, 1.234e-5
-0.501, 1.164e-5
-0.502, 1.110e-5
-0.503, 1.066e-5
-0.504, 1.026e-5
-0.505, 9.916e-6
-0.506, 9.610e-6
-0.507, 9.316e-6
-0.508, 9.043e-6
-0.509, 8.790e-6
-0.510, 8.558e-6
-0.511, 8.331e-6
-0.512, 8.103e-6
-0.513, 7.906e-6
-0.514, 7.716e-6
-0.515, 7.527e-6
-0.516, 7.354e-6
-0.517, 7.187e-6
-0.518, 7.028e-6
-0.519, 6.870e-6
-0.520, 6.721e-6
-0.521, 6.582e-6
-0.522, 6.437e-6
-0.523, 6.308e-6
-0.524, 6.180e-6
-0.525, 6.050e-6
-0.526, 5.930e-6
-0.527, 5.828e-6
-0.528, 5.712e-6
-0.529, 5.604e-6
-0.530, 5.502e-6
-0.531, 5.405e-6
-0.532, 5.301e-6
-0.533, 5.209e-6
-0.534, 5.128e-6
-0.535, 5.036e-6
-0.536, 4.949e-6
-0.537, 4.881e-6
-0.538, 4.802e-6
-0.539, 4.718e-6
-0.540, 4.663e-6
-0.541, 4.595e-6
-0.542, 4.517e-6
-0.543, 4.461e-6
-0.544, 4.413e-6
-0.545, 4.349e-6
-0.546, 4.291e-6
-0.547, 4.249e-6
-0.548, 4.202e-6
-0.549, 4.151e-6
-0.550, 4.118e-6
-0.551, 4.079e-6
-0.552, 4.032e-6
-0.553, 3.998e-6
-0.554, 3.971e-6
-0.555, 3.931e-6
-0.556, 3.901e-6
-0.557, 3.885e-6
-0.558, 3.852e-6
-0.559, 3.819e-6
-0.560, 3.803e-6
-0.561, 3.779e-6
-0.562, 3.747e-6
-0.563, 3.729e-6
-0.564, 3.719e-6
-0.565, 3.692e-6
-0.566, 3.673e-6
-0.567, 3.667e-6
-0.568, 3.644e-6
-0.569, 3.620e-6
-0.570, 3.613e-6
-0.571, 3.598e-6
-0.572, 3.573e-6
-0.573, 3.560e-6
-0.574, 3.557e-6
-0.575, 3.530e-6
-0.576, 3.512e-6
-0.577, 3.510e-6
-0.578, 3.492e-6
-0.579, 3.469e-6
-0.580, 3.466e-6
-0.581, 3.455e-6
-0.582, 3.434e-6
-0.583, 3.426e-6
-0.584, 3.421e-6
-0.585, 3.400e-6
-0.586, 3.385e-6
-0.587, 3.385e-6
-0.588, 3.367e-6
-0.589, 3.349e-6
-0.590, 3.344e-6
-0.591, 3.335e-6
-0.592, 3.308e-6
-0.593, 3.300e-6
-0.594, 3.296e-6
-0.595, 3.274e-6
-0.596, 3.260e-6
-0.597, 3.260e-6
-0.598, 3.245e-6
-0.599, 3.228e-6
-0.600, 3.225e-6
-0.601, 3.216e-6
-0.602, 3.194e-6
-0.603, 3.187e-6
-0.604, 3.184e-6
-0.605, 3.162e-6
-0.606, 3.149e-6
-0.607, 3.148e-6
-0.608, 3.134e-6
-0.609, 3.112e-6
-0.610, 3.112e-6
-0.611, 3.102e-6
-0.612, 3.076e-6
-0.613, 3.069e-6
-0.614, 3.065e-6
-0.615, 3.041e-6
-0.616, 3.027e-6
-0.617, 3.028e-6
-0.618, 3.013e-6
-0.619, 2.993e-6
-0.620, 2.994e-6
-0.621, 2.984e-6
-0.622, 2.961e-6
-0.623, 2.956e-6
-0.624, 2.954e-6
-0.625, 2.934e-6
-0.626, 2.918e-6
-0.627, 2.918e-6
-0.628, 2.903e-6
-0.629, 2.881e-6
-0.630, 2.880e-6
-0.631, 2.870e-6
-0.632, 2.846e-6
-0.633, 2.841e-6
-0.634, 2.837e-6
-0.635, 2.815e-6
-0.636, 2.800e-6
-0.637, 2.799e-6
-0.638, 2.782e-6
-0.639, 2.764e-6
-0.640, 2.765e-6
-0.641, 2.756e-6
-0.642, 2.736e-6
-0.643, 2.729e-6
-0.644, 2.726e-6
-0.645, 2.704e-6
-0.646, 2.689e-6
-0.647, 2.690e-6
-0.648, 2.671e-6
-0.649, 2.651e-6
-0.650, 2.650e-6
-0.651, 2.641e-6
-0.652, 2.617e-6
-0.653, 2.608e-6
-0.654, 2.606e-6
-0.655, 2.583e-6
-0.656, 2.565e-6
-0.657, 2.564e-6
-0.658, 2.548e-6
-0.659, 2.528e-6
-0.660, 2.524e-6
-0.661, 2.515e-6
-0.662, 2.493e-6
-0.663, 2.485e-6
-0.664, 2.480e-6
-0.665, 2.458e-6
-0.666, 2.441e-6
-0.667, 2.441e-6
-0.668, 2.424e-6
-0.669, 2.401e-6
-0.670, 2.398e-6
-0.671, 2.389e-6
-0.672, 2.362e-6
-0.673, 2.351e-6
-0.674, 2.347e-6
-0.675, 2.318e-6
-0.676, 2.304e-6
-0.677, 2.299e-6
-0.678, 2.284e-6
-0.679, 2.262e-6
-0.680, 2.258e-6
-0.681, 2.247e-6
-0.682, 2.222e-6
-0.683, 2.210e-6
-0.684, 2.204e-6
-0.685, 2.179e-6
-0.686, 2.160e-6
-0.687, 2.156e-6
-0.688, 2.135e-6
-0.689, 2.110e-6
-0.690, 2.105e-6
-0.691, 2.090e-6
-0.692, 2.061e-6
-0.693, 2.048e-6
-0.694, 2.039e-6
-0.695, 2.015e-6
-0.696, 1.994e-6
-0.697, 1.990e-6
-0.698, 1.968e-6
-0.699, 1.941e-6
-0.700, 1.933e-6
-0.701, 1.915e-6
-0.702, 1.886e-6
-0.703, 1.868e-6
-0.704, 1.855e-6
-0.705, 1.823e-6
-0.706, 1.800e-6
-0.707, 1.792e-6
-0.708, 1.767e-6
-0.709, 1.738e-6
-0.710, 1.729e-6
-0.711, 1.706e-6
-0.712, 1.673e-6
-0.713, 1.653e-6
-0.714, 1.637e-6
-0.715, 1.600e-6
-0.716, 1.575e-6
-0.717, 1.556e-6
-0.718, 1.528e-6
-0.719, 1.496e-6
-0.720, 1.478e-6
-0.721, 1.456e-6
-0.722, 1.414e-6
-0.723, 1.392e-6
-0.724, 1.369e-6
-0.725, 1.328e-6
-0.726, 1.298e-6
-0.727, 1.277e-6
-0.728, 1.242e-6
-0.729, 1.203e-6
-0.730, 1.179e-6
-0.731, 1.145e-6
-0.732, 1.101e-6
-0.733, 1.067e-6
-0.734, 1.037e-6
-0.735, 9.952e-7
-0.736, 9.556e-7
-0.737, 9.247e-7
-0.738, 8.779e-7
-0.739, 8.302e-7
-0.740, 7.977e-7
-0.741, 7.559e-7
-0.742, 7.062e-7
-0.743, 6.684e-7
-0.744, 6.240e-7
-0.745, 5.646e-7
-0.746, 5.166e-7
-0.747, 4.758e-7
-0.748, 4.209e-7
-0.749, 3.604e-7
-0.750, 3.181e-7
-0.751, 2.630e-7
-0.752, 1.979e-7
-0.753, 1.390e-7
-0.754, 8.377e-8
-0.755, 1.254e-8
-0.756, -4.761e-8
-0.757, -1.143e-7
-0.758, -1.820e-7
-0.759, -2.544e-7
-0.760, -3.224e-7
-0.761, -4.034e-7
-0.762, -4.797e-7
-0.763, -5.526e-7
-0.764, -6.348e-7
-0.765, -7.159e-7
-0.766, -8.019e-7
-0.767, -8.876e-7
-0.768, -9.893e-7
-0.769, -1.087e-6
-0.770, -1.176e-6
-0.771, -1.275e-6
-0.772, -1.381e-6
-0.773, -1.481e-6
-0.774, -1.585e-6
-0.775, -1.696e-6
-0.776, -1.812e-6
-0.777, -1.920e-6
-0.778, -2.044e-6
-0.779, -2.172e-6
-0.780, -2.294e-6
-0.781, -2.430e-6
-0.782, -2.567e-6
-0.783, -2.702e-6
-0.784, -2.843e-6
-0.785, -2.992e-6
-0.786, -3.144e-6
-0.787, -3.295e-6
-0.788, -3.456e-6
-0.789, -3.624e-6
-0.790, -3.787e-6
-0.791, -3.965e-6
-0.792, -4.149e-6
-0.793, -4.316e-6
-0.794, -4.497e-6
-0.795, -4.692e-6
-0.796, -4.887e-6
-0.797, -5.089e-6
-0.798, -5.303e-6
-0.799, -5.515e-6
-0.800, -5.727e-6
-0.801, -5.946e-6
-0.802, -6.182e-6
-0.803, -6.407e-6
-0.804, -6.649e-6
-0.805, -6.906e-6
-0.806, -7.147e-6
-0.807, -7.412e-6
-0.808, -7.679e-6
-0.809, -7.942e-6
-0.810, -8.206e-6
-0.811, -8.504e-6
-0.812, -8.787e-6
-0.813, -9.081e-6
-0.814, -9.386e-6
-0.815, -9.693e-6
-0.816, -9.997e-6
-0.817, -1.031e-5
-0.818, -1.065e-5
-0.819, -1.093e-5
-0.820, -1.124e-5
-0.821, -1.161e-5
-0.822, -1.196e-5
-0.823, -1.231e-5
-0.824, -1.269e-5
-0.825, -1.306e-5
-0.826, -1.343e-5
-0.827, -1.381e-5
-0.828, -1.421e-5
-0.829, -1.459e-5
-0.830, -1.499e-5
-0.831, -1.540e-5
-0.832, -1.582e-5
-0.833, -1.623e-5
-0.834, -1.666e-5
-0.835, -1.709e-5
-0.836, -1.750e-5
-0.837, -1.796e-5
-0.838, -1.840e-5
-0.839, -1.882e-5
-0.840, -1.929e-5
-0.841, -1.976e-5
-0.842, -2.021e-5
-0.843, -2.067e-5
-0.844, -2.115e-5
-0.845, -2.158e-5
-0.846, -2.204e-5
-0.847, -2.255e-5
-0.848, -2.305e-5
-0.849, -2.352e-5
-0.850, -2.402e-5
-0.851, -2.452e-5
-0.852, -2.501e-5
-0.853, -2.548e-5
-0.854, -2.600e-5
-0.855, -2.650e-5
-0.856, -2.699e-5
-0.857, -2.750e-5
-0.858, -2.802e-5
-0.859, -2.850e-5
-0.860, -2.901e-5
-0.861, -2.953e-5
-0.862, -3.002e-5
-0.863, -3.052e-5
-0.864, -3.103e-5
-0.865, -3.153e-5
-0.866, -3.202e-5
-0.867, -3.251e-5
-0.868, -3.301e-5
-0.869, -3.349e-5
-0.870, -3.400e-5
-0.871, -3.453e-5
-0.872, -3.500e-5
-0.873, -3.546e-5
-0.874, -3.594e-5
-0.875, -3.641e-5
-0.876, -3.686e-5
-0.877, -3.733e-5
-0.878, -3.779e-5
-0.879, -3.824e-5
-0.880, -3.867e-5
-0.881, -3.913e-5
-0.882, -3.956e-5
-0.883, -3.998e-5
-0.884, -4.041e-5
-0.885, -4.083e-5
-0.886, -4.122e-5
-0.887, -4.164e-5
-0.888, -4.204e-5
-0.889, -4.242e-5
-0.890, -4.279e-5
-0.891, -4.319e-5
-0.892, -4.355e-5
-0.893, -4.389e-5
-0.894, -4.426e-5
-0.895, -4.460e-5
-0.896, -4.489e-5
-0.897, -4.523e-5
-0.898, -4.558e-5
-0.899, -4.586e-5
-0.900, -4.617e-5
-0.901, -4.649e-5
-0.902, -4.678e-5
-0.903, -4.704e-5
-0.904, -4.734e-5
-0.905, -4.760e-5
-0.906, -4.785e-5
-0.907, -4.812e-5
-0.908, -4.836e-5
-0.909, -4.857e-5
-0.910, -4.881e-5
-0.911, -4.906e-5
-0.912, -4.925e-5
-0.913, -4.945e-5
-0.914, -4.966e-5
-0.915, -4.984e-5
-0.916, -5.001e-5
-0.917, -5.019e-5
-0.918, -5.036e-5
-0.919, -5.052e-5
-0.920, -5.067e-5
-0.921, -5.083e-5
-0.922, -5.099e-5
-0.923, -5.111e-5
-0.924, -5.124e-5
-0.925, -5.136e-5
-0.926, -5.145e-5
-0.927, -5.157e-5
-0.928, -5.168e-5
-0.929, -5.176e-5
-0.930, -5.185e-5
-0.931, -5.194e-5
-0.932, -5.201e-5
-0.933, -5.208e-5
-0.934, -5.215e-5
-0.935, -5.221e-5
-0.936, -5.226e-5
-0.937, -5.231e-5
-0.938, -5.236e-5
-0.939, -5.238e-5
-0.940, -5.243e-5
-0.941, -5.245e-5
-0.942, -5.247e-5
-0.943, -5.249e-5
-0.944, -5.252e-5
-0.945, -5.253e-5
-0.946, -5.252e-5
-0.947, -5.251e-5
-0.948, -5.251e-5
-0.949, -5.250e-5
-0.950, -5.249e-5
-0.951, -5.249e-5
-0.952, -5.248e-5
-0.953, -5.245e-5
-0.954, -5.243e-5
-0.955, -5.242e-5
-0.956, -5.238e-5
-0.957, -5.235e-5
-0.958, -5.232e-5
-0.959, -5.228e-5
-0.960, -5.224e-5
-0.961, -5.220e-5
-0.962, -5.215e-5
-0.963, -5.209e-5
-0.964, -5.205e-5
-0.965, -5.200e-5
-0.966, -5.194e-5
-0.967, -5.187e-5
-0.968, -5.183e-5
-0.969, -5.176e-5
-0.970, -5.169e-5
-0.971, -5.162e-5
-0.972, -5.155e-5
-0.973, -5.150e-5
-0.974, -5.143e-5
-0.975, -5.135e-5
-0.976, -5.127e-5
-0.977, -5.119e-5
-0.978, -5.112e-5
-0.979, -5.103e-5
-0.980, -5.095e-5
-0.981, -5.087e-5
-0.982, -5.079e-5
-0.983, -5.070e-5
-0.984, -5.061e-5
-0.985, -5.053e-5
-0.986, -5.044e-5
-0.987, -5.034e-5
-0.988, -5.026e-5
-0.989, -5.017e-5
-0.990, -5.007e-5
-0.991, -4.998e-5
-0.992, -4.989e-5
-0.993, -4.979e-5
-0.994, -4.970e-5
-0.995, -4.960e-5
-0.996, -4.951e-5
-0.997, -4.940e-5
-0.998, -4.931e-5
-0.999, -4.920e-5
-1.000, -4.910e-5
-1.001, -4.901e-5
-1.002, -4.891e-5
-1.003, -4.881e-5
-1.004, -4.871e-5
-1.005, -4.861e-5
-1.006, -4.852e-5
-1.007, -4.841e-5
-1.008, -4.832e-5
-1.009, -4.822e-5
-1.010, -4.812e-5
-1.011, -4.802e-5
-1.012, -4.792e-5
-1.013, -4.782e-5
-1.014, -4.771e-5
-1.015, -4.762e-5
-1.016, -4.752e-5
-1.017, -4.742e-5
-1.018, -4.733e-5
-1.019, -4.723e-5
-1.020, -4.712e-5
-1.021, -4.702e-5
-1.022, -4.693e-5
-1.023, -4.683e-5
-1.024, -4.673e-5
-1.025, -4.663e-5
-1.026, -4.653e-5
-1.027, -4.643e-5
-1.028, -4.634e-5
-1.029, -4.625e-5
-1.030, -4.614e-5
-1.031, -4.604e-5
-1.032, -4.595e-5
-1.033, -4.586e-5
-1.034, -4.575e-5
-1.035, -4.567e-5
-1.036, -4.557e-5
-1.037, -4.547e-5
-1.038, -4.538e-5
-1.039, -4.529e-5
-1.040, -4.519e-5
-1.041, -4.510e-5
-1.042, -4.501e-5
-1.043, -4.492e-5
-1.044, -4.482e-5
-1.045, -4.473e-5
-1.046, -4.465e-5
-1.047, -4.455e-5
-1.048, -4.447e-5
-1.049, -4.438e-5
-1.050, -4.428e-5
-1.051, -4.419e-5
-1.052, -4.411e-5
-1.053, -4.402e-5
-1.054, -4.393e-5
-1.055, -4.385e-5
-1.056, -4.377e-5
-1.057, -4.368e-5
-1.058, -4.359e-5
-1.059, -4.351e-5
-1.060, -4.343e-5
-1.061, -4.334e-5
-1.062, -4.327e-5
-1.063, -4.318e-5
-1.064, -4.309e-5
-1.065, -4.302e-5
-1.066, -4.295e-5
-1.067, -4.285e-5
-1.068, -4.277e-5
-1.069, -4.270e-5
-1.070, -4.261e-5
-1.071, -4.253e-5
-1.072, -4.247e-5
-1.073, -4.238e-5
-1.074, -4.230e-5
-1.075, -4.223e-5
-1.076, -4.216e-5
-1.077, -4.208e-5
-1.078, -4.201e-5
-1.079, -4.194e-5
-1.080, -4.185e-5
-1.081, -4.178e-5
-1.082, -4.171e-5
-1.083, -4.164e-5
-1.084, -4.155e-5
-1.085, -4.150e-5
-1.086, -4.143e-5
-1.087, -4.134e-5
-1.088, -4.128e-5
-1.089, -4.122e-5
-1.090, -4.114e-5
-1.091, -4.107e-5
-1.092, -4.101e-5
-1.093, -4.094e-5
-1.094, -4.086e-5
-1.095, -4.081e-5
-1.096, -4.075e-5
-1.097, -4.067e-5
-1.098, -4.061e-5
-1.099, -4.055e-5
-1.100, -4.048e-5
-1.101, -4.040e-5
-1.102, -4.036e-5
-1.103, -4.029e-5
-1.104, -4.022e-5
-1.105, -4.016e-5
-1.106, -4.010e-5
-1.107, -4.003e-5
-1.108, -3.997e-5
-1.109, -3.992e-5
-1.110, -3.985e-5
-1.111, -3.979e-5
-1.112, -3.974e-5
-1.113, -3.968e-5
-1.114, -3.961e-5
-1.115, -3.956e-5
-1.116, -3.951e-5
-1.117, -3.944e-5
-1.118, -3.938e-5
-1.119, -3.933e-5
-1.120, -3.927e-5
-1.121, -3.921e-5
-1.122, -3.917e-5
-1.123, -3.911e-5
-1.124, -3.905e-5
-1.125, -3.900e-5
-1.126, -3.895e-5
-1.127, -3.888e-5
-1.128, -3.883e-5
-1.129, -3.878e-5
-1.130, -3.872e-5
-1.131, -3.867e-5
-1.132, -3.863e-5
-1.133, -3.857e-5
-1.134, -3.851e-5
-1.135, -3.847e-5
-1.136, -3.842e-5
-1.137, -3.836e-5
-1.138, -3.832e-5
-1.139, -3.828e-5
-1.140, -3.822e-5
-1.141, -3.817e-5
-1.142, -3.813e-5
-1.143, -3.808e-5
-1.144, -3.802e-5
-1.145, -3.798e-5
-1.146, -3.793e-5
-1.147, -3.788e-5
-1.148, -3.783e-5
-1.149, -3.779e-5
-1.150, -3.774e-5
-1.151, -3.769e-5
-1.152, -3.765e-5
-1.153, -3.760e-5
-1.154, -3.755e-5
-1.155, -3.751e-5
-1.156, -3.747e-5
-1.157, -3.742e-5
-1.158, -3.738e-5
-1.159, -3.734e-5
-1.160, -3.729e-5
-1.161, -3.724e-5
-1.162, -3.721e-5
-1.163, -3.716e-5
-1.164, -3.712e-5
-1.165, -3.708e-5
-1.166, -3.704e-5
-1.167, -3.699e-5
-1.168, -3.695e-5
-1.169, -3.692e-5
-1.170, -3.687e-5
-1.171, -3.683e-5
-1.172, -3.680e-5
-1.173, -3.676e-5
-1.174, -3.671e-5
-1.175, -3.668e-5
-1.176, -3.665e-5
-1.177, -3.660e-5
-1.178, -3.656e-5
-1.179, -3.653e-5
-1.180, -3.649e-5
-1.181, -3.645e-5
-1.182, -3.642e-5
-1.183, -3.638e-5
-1.184, -3.633e-5
-1.185, -3.631e-5
-1.186, -3.627e-5
-1.187, -3.622e-5
-1.188, -3.619e-5
-1.189, -3.617e-5
-1.190, -3.612e-5
-1.191, -3.608e-5
-1.192, -3.606e-5
-1.193, -3.602e-5
-1.194, -3.598e-5
-1.195, -3.595e-5
-1.196, -3.592e-5
-1.197, -3.587e-5
-1.198, -3.584e-5
-1.199, -3.582e-5
-1.200, -3.571e-5
-1.199, -3.558e-5
-1.198, -3.551e-5
-1.197, -3.542e-5
-1.196, -3.534e-5
-1.195, -3.528e-5
-1.194, -3.522e-5
-1.193, -3.515e-5
-1.192, -3.508e-5
-1.191, -3.503e-5
-1.190, -3.496e-5
-1.189, -3.489e-5
-1.188, -3.484e-5
-1.187, -3.478e-5
-1.186, -3.472e-5
-1.185, -3.467e-5
-1.184, -3.462e-5
-1.183, -3.455e-5
-1.182, -3.450e-5
-1.181, -3.446e-5
-1.180, -3.439e-5
-1.179, -3.433e-5
-1.178, -3.429e-5
-1.177, -3.424e-5
-1.176, -3.418e-5
-1.175, -3.414e-5
-1.174, -3.409e-5
-1.173, -3.402e-5
-1.172, -3.398e-5
-1.171, -3.394e-5
-1.170, -3.388e-5
-1.169, -3.383e-5
-1.168, -3.379e-5
-1.167, -3.374e-5
-1.166, -3.368e-5
-1.165, -3.364e-5
-1.164, -3.360e-5
-1.163, -3.354e-5
-1.162, -3.350e-5
-1.161, -3.346e-5
-1.160, -3.341e-5
-1.159, -3.336e-5
-1.158, -3.332e-5
-1.157, -3.327e-5
-1.156, -3.323e-5
-1.155, -3.319e-5
-1.154, -3.314e-5
-1.153, -3.309e-5
-1.152, -3.305e-5
-1.151, -3.302e-5
-1.150, -3.297e-5
-1.149, -3.292e-5
-1.148, -3.289e-5
-1.147, -3.284e-5
-1.146, -3.279e-5
-1.145, -3.276e-5
-1.144, -3.272e-5
-1.143, -3.267e-5
-1.142, -3.263e-5
-1.141, -3.259e-5
-1.140, -3.254e-5
-1.139, -3.250e-5
-1.138, -3.247e-5
-1.137, -3.242e-5
-1.136, -3.238e-5
-1.135, -3.234e-5
-1.134, -3.231e-5
-1.133, -3.226e-5
-1.132, -3.223e-5
-1.131, -3.219e-5
-1.130, -3.214e-5
-1.129, -3.210e-5
-1.128, -3.206e-5
-1.127, -3.202e-5
-1.126, -3.198e-5
-1.125, -3.195e-5
-1.124, -3.191e-5
-1.123, -3.186e-5
-1.122, -3.182e-5
-1.121, -3.179e-5
-1.120, -3.175e-5
-1.119, -3.171e-5
-1.118, -3.168e-5
-1.117, -3.164e-5
-1.116, -3.159e-5
-1.115, -3.156e-5
-1.114, -3.152e-5
-1.113, -3.148e-5
-1.112, -3.144e-5
-1.111, -3.141e-5
-1.110, -3.136e-5
-1.109, -3.132e-5
-1.108, -3.130e-5
-1.107, -3.126e-5
-1.106, -3.121e-5
-1.105, -3.118e-5
-1.104, -3.115e-5
-1.103, -3.110e-5
-1.102, -3.106e-5
-1.101, -3.104e-5
-1.100, -3.099e-5
-1.099, -3.095e-5
-1.098, -3.092e-5
-1.097, -3.088e-5
-1.096, -3.083e-5
-1.095, -3.081e-5
-1.094, -3.078e-5
-1.093, -3.073e-5
-1.092, -3.069e-5
-1.091, -3.066e-5
-1.090, -3.062e-5
-1.089, -3.058e-5
-1.088, -3.055e-5
-1.087, -3.051e-5
-1.086, -3.047e-5
-1.085, -3.044e-5
-1.084, -3.041e-5
-1.083, -3.035e-5
-1.082, -3.032e-5
-1.081, -3.030e-5
-1.080, -3.025e-5
-1.079, -3.021e-5
-1.078, -3.018e-5
-1.077, -3.014e-5
-1.076, -3.009e-5
-1.075, -3.006e-5
-1.074, -3.003e-5
-1.073, -2.998e-5
-1.072, -2.995e-5
-1.071, -2.992e-5
-1.070, -2.987e-5
-1.069, -2.983e-5
-1.068, -2.980e-5
-1.067, -2.976e-5
-1.066, -2.971e-5
-1.065, -2.968e-5
-1.064, -2.964e-5
-1.063, -2.960e-5
-1.062, -2.957e-5
-1.061, -2.953e-5
-1.060, -2.948e-5
-1.059, -2.944e-5
-1.058, -2.941e-5
-1.057, -2.937e-5
-1.056, -2.933e-5
-1.055, -2.930e-5
-1.054, -2.926e-5
-1.053, -2.920e-5
-1.052, -2.917e-5
-1.051, -2.914e-5
-1.050, -2.909e-5
-1.049, -2.905e-5
-1.048, -2.902e-5
-1.047, -2.897e-5
-1.046, -2.893e-5
-1.045, -2.889e-5
-1.044, -2.885e-5
-1.043, -2.880e-5
-1.042, -2.876e-5
-1.041, -2.873e-5
-1.040, -2.867e-5
-1.039, -2.863e-5
-1.038, -2.860e-5
-1.037, -2.855e-5
-1.036, -2.849e-5
-1.035, -2.846e-5
-1.034, -2.841e-5
-1.033, -2.836e-5
-1.032, -2.832e-5
-1.031, -2.828e-5
-1.030, -2.822e-5
-1.029, -2.818e-5
-1.028, -2.814e-5
-1.027, -2.809e-5
-1.026, -2.803e-5
-1.025, -2.799e-5
-1.024, -2.794e-5
-1.023, -2.788e-5
-1.022, -2.784e-5
-1.021, -2.779e-5
-1.020, -2.773e-5
-1.019, -2.767e-5
-1.018, -2.764e-5
-1.017, -2.758e-5
-1.016, -2.752e-5
-1.015, -2.747e-5
-1.014, -2.742e-5
-1.013, -2.735e-5
-1.012, -2.730e-5
-1.011, -2.724e-5
-1.010, -2.718e-5
-1.009, -2.712e-5
-1.008, -2.707e-5
-1.007, -2.700e-5
-1.006, -2.694e-5
-1.005, -2.688e-5
-1.004, -2.682e-5
-1.003, -2.674e-5
-1.002, -2.668e-5
-1.001, -2.662e-5
-1.000, -2.654e-5
-0.999, -2.648e-5
-0.998, -2.642e-5
-0.997, -2.635e-5
-0.996, -2.627e-5
-0.995, -2.620e-5
-0.994, -2.613e-5
-0.993, -2.604e-5
-0.992, -2.597e-5
-0.991, -2.590e-5
-0.990, -2.581e-5
-0.989, -2.573e-5
-0.988, -2.565e-5
-0.987, -2.556e-5
-0.986, -2.547e-5
-0.985, -2.540e-5
-0.984, -2.530e-5
-0.983, -2.521e-5
-0.982, -2.512e-5
-0.981, -2.503e-5
-0.980, -2.493e-5
-0.979, -2.483e-5
-0.978, -2.474e-5
-0.977, -2.463e-5
-0.976, -2.453e-5
-0.975, -2.443e-5
-0.974, -2.431e-5
-0.973, -2.419e-5
-0.972, -2.408e-5
-0.971, -2.397e-5
-0.970, -2.385e-5
-0.969, -2.373e-5
-0.968, -2.362e-5
-0.967, -2.349e-5
-0.966, -2.336e-5
-0.965, -2.323e-5
-0.964, -2.310e-5
-0.963, -2.296e-5
-0.962, -2.283e-5
-0.961, -2.268e-5
-0.960, -2.253e-5
-0.959, -2.239e-5
-0.958, -2.224e-5
-0.957, -2.208e-5
-0.956, -2.192e-5
-0.955, -2.176e-5
-0.954, -2.160e-5
-0.953, -2.143e-5
-0.952, -2.126e-5
-0.951, -2.109e-5
-0.950, -2.091e-5
-0.949, -2.073e-5
-0.948, -2.055e-5
-0.947, -2.037e-5
-0.946, -2.017e-5
-0.945, -1.997e-5
-0.944, -1.976e-5
-0.943, -1.956e-5
-0.942, -1.934e-5
-0.941, -1.913e-5
-0.940, -1.891e-5
-0.939, -1.868e-5
-0.938, -1.845e-5
-0.937, -1.821e-5
-0.936, -1.797e-5
-0.935, -1.773e-5
-0.934, -1.747e-5
-0.933, -1.722e-5
-0.932, -1.696e-5
-0.931, -1.669e-5
-0.930, -1.642e-5
-0.929, -1.615e-5
-0.928, -1.586e-5
-0.927, -1.557e-5
-0.926, -1.528e-5
-0.925, -1.499e-5
-0.924, -1.468e-5
-0.923, -1.437e-5
-0.922, -1.405e-5
-0.921, -1.368e-5
-0.920, -1.337e-5
-0.919, -1.305e-5
-0.918, -1.271e-5
-0.917, -1.234e-5
-0.916, -1.200e-5
-0.915, -1.164e-5
-0.914, -1.127e-5
-0.913, -1.090e-5
-0.912, -1.053e-5
-0.911, -1.013e-5
-0.910, -9.730e-6
-0.909, -9.347e-6
-0.908, -8.932e-6
-0.907, -8.512e-6
-0.906, -8.115e-6
-0.905, -7.704e-6
-0.904, -7.248e-6
-0.903, -6.827e-6
-0.902, -6.387e-6
-0.901, -5.924e-6
-0.900, -5.476e-6
-0.899, -5.034e-6
-0.898, -4.554e-6
-0.897, -4.078e-6
-0.896, -3.641e-6
-0.895, -3.171e-6
-0.894, -2.648e-6
-0.893, -2.177e-6
-0.892, -1.690e-6
-0.891, -1.146e-6
-0.890, -6.566e-7
-0.889, -1.670e-7
-0.888, 3.798e-7
-0.887, 9.173e-7
-0.886, 1.421e-6
-0.885, 1.958e-6
-0.884, 2.515e-6
-0.883, 3.048e-6
-0.882, 3.578e-6
-0.881, 4.156e-6
-0.880, 4.678e-6
-0.879, 5.207e-6
-0.878, 5.793e-6
-0.877, 6.343e-6
-0.876, 6.865e-6
-0.875, 7.434e-6
-0.874, 8.017e-6
-0.873, 8.550e-6
-0.872, 9.116e-6
-0.871, 9.687e-6
-0.870, 1.028e-5
-0.869, 1.081e-5
-0.868, 1.138e-5
-0.867, 1.195e-5
-0.866, 1.246e-5
-0.865, 1.302e-5
-0.864, 1.357e-5
-0.863, 1.408e-5
-0.862, 1.462e-5
-0.861, 1.519e-5
-0.860, 1.570e-5
-0.859, 1.622e-5
-0.858, 1.676e-5
-0.857, 1.730e-5
-0.856, 1.778e-5
-0.855, 1.827e-5
-0.854, 1.878e-5
-0.853, 1.924e-5
-0.852, 1.973e-5
-0.851, 2.022e-5
-0.850, 2.067e-5
-0.849, 2.111e-5
-0.848, 2.157e-5
-0.847, 2.201e-5
-0.846, 2.242e-5
-0.845, 2.281e-5
-0.844, 2.320e-5
-0.843, 2.359e-5
-0.842, 2.397e-5
-0.841, 2.437e-5
-0.840, 2.475e-5
-0.839, 2.507e-5
-0.838, 2.541e-5
-0.837, 2.575e-5
-0.836, 2.603e-5
-0.835, 2.634e-5
-0.834, 2.664e-5
-0.833, 2.692e-5
-0.832, 2.717e-5
-0.831, 2.745e-5
-0.830, 2.768e-5
-0.829, 2.789e-5
-0.828, 2.811e-5
-0.827, 2.833e-5
-0.826, 2.848e-5
-0.825, 2.864e-5
-0.824, 2.883e-5
-0.823, 2.895e-5
-0.822, 2.908e-5
-0.821, 2.921e-5
-0.820, 2.932e-5
-0.819, 2.930e-5
-0.818, 2.940e-5
-0.817, 2.949e-5
-0.816, 2.953e-5
-0.815, 2.958e-5
-0.814, 2.964e-5
-0.813, 2.965e-5
-0.812, 2.966e-5
-0.811, 2.968e-5
-0.810, 2.966e-5
-0.809, 2.962e-5
-0.808, 2.961e-5
-0.807, 2.958e-5
-0.806, 2.952e-5
-0.805, 2.946e-5
-0.804, 2.941e-5
-0.803, 2.932e-5
-0.802, 2.923e-5
-0.801, 2.914e-5
-0.800, 2.903e-5
-0.799, 2.891e-5
-0.798, 2.881e-5
-0.797, 2.869e-5
-0.796, 2.855e-5
-0.795, 2.843e-5
-0.794, 2.827e-5
-0.793, 2.810e-5
-0.792, 2.796e-5
-0.791, 2.781e-5
-0.790, 2.765e-5
-0.789, 2.748e-5
-0.788, 2.732e-5
-0.787, 2.714e-5
-0.786, 2.697e-5
-0.785, 2.679e-5
-0.784, 2.661e-5
-0.783, 2.642e-5
-0.782, 2.623e-5
-0.781, 2.605e-5
-0.780, 2.586e-5
-0.779, 2.567e-5
-0.778, 2.547e-5
-0.777, 2.528e-5
-0.776, 2.508e-5
-0.775, 2.489e-5
-0.774, 2.469e-5
-0.773, 2.450e-5
-0.772, 2.430e-5
-0.771, 2.410e-5
-0.770, 2.390e-5
-0.769, 2.371e-5
-0.768, 2.352e-5
-0.767, 2.333e-5
-0.766, 2.313e-5
-0.765, 2.292e-5
-0.764, 2.273e-5
-0.763, 2.254e-5
-0.762, 2.234e-5
-0.761, 2.215e-5
-0.760, 2.197e-5
-0.759, 2.177e-5
-0.758, 2.158e-5
-0.757, 2.141e-5
-0.756, 2.122e-5
-0.755, 2.103e-5
-0.754, 2.085e-5
-0.753, 2.068e-5
-0.752, 2.050e-5
-0.751, 2.031e-5
-0.750, 2.014e-5
-0.749, 1.997e-5
-0.748, 1.979e-5
-0.747, 1.963e-5
-0.746, 1.946e-5
-0.745, 1.928e-5
-0.744, 1.912e-5
-0.743, 1.896e-5
-0.742, 1.879e-5
-0.741, 1.863e-5
-0.740, 1.848e-5
-0.739, 1.832e-5
-0.738, 1.817e-5
-0.737, 1.802e-5
-0.736, 1.787e-5
-0.735, 1.771e-5
-0.734, 1.757e-5
-0.733, 1.743e-5
-0.732, 1.728e-5
-0.731, 1.714e-5
-0.730, 1.701e-5
-0.729, 1.687e-5
-0.728, 1.673e-5
-0.727, 1.659e-5
-0.726, 1.646e-5
-0.725, 1.633e-5
-0.724, 1.619e-5
-0.723, 1.607e-5
-0.722, 1.594e-5
-0.721, 1.581e-5
-0.720, 1.570e-5
-0.719, 1.558e-5
-0.718, 1.545e-5
-0.717, 1.534e-5
-0.716, 1.522e-5
-0.715, 1.510e-5
-0.714, 1.498e-5
-0.713, 1.488e-5
-0.712, 1.476e-5
-0.711, 1.464e-5
-0.710, 1.454e-5
-0.709, 1.443e-5
-0.708, 1.432e-5
-0.707, 1.422e-5
-0.706, 1.412e-5
-0.705, 1.401e-5
-0.704, 1.391e-5
-0.703, 1.382e-5
-0.702, 1.372e-5
-0.701, 1.361e-5
-0.700, 1.352e-5
-0.699, 1.343e-5
-0.698, 1.333e-5
-0.697, 1.324e-5
-0.696, 1.315e-5
-0.695, 1.305e-5
-0.694, 1.296e-5
-0.693, 1.288e-5
-0.692, 1.279e-5
-0.691, 1.269e-5
-0.690, 1.262e-5
-0.689, 1.253e-5
-0.688, 1.244e-5
-0.687, 1.236e-5
-0.686, 1.228e-5
-0.685, 1.219e-5
-0.684, 1.211e-5
-0.683, 1.204e-5
-0.682, 1.196e-5
-0.681, 1.188e-5
-0.680, 1.181e-5
-0.679, 1.173e-5
-0.678, 1.165e-5
-0.677, 1.158e-5
-0.676, 1.151e-5
-0.675, 1.143e-5
-0.674, 1.136e-5
-0.673, 1.130e-5
-0.672, 1.122e-5
-0.671, 1.115e-5
-0.670, 1.108e-5
-0.669, 1.102e-5
-0.668, 1.094e-5
-0.667, 1.088e-5
-0.666, 1.082e-5
-0.665, 1.075e-5
-0.664, 1.068e-5
-0.663, 1.063e-5
-0.662, 1.056e-5
-0.661, 1.049e-5
-0.660, 1.044e-5
-0.659, 1.038e-5
-0.658, 1.030e-5
-0.657, 1.025e-5
-0.656, 1.020e-5
-0.655, 1.012e-5
-0.654, 1.007e-5
-0.653, 1.002e-5
-0.652, 9.960e-6
-0.651, 9.895e-6
-0.650, 9.847e-6
-0.649, 9.800e-6
-0.648, 9.735e-6
-0.647, 9.684e-6
-0.646, 9.635e-6
-0.645, 9.573e-6
-0.644, 9.523e-6
-0.643, 9.480e-6
-0.642, 9.425e-6
-0.641, 9.360e-6
-0.640, 9.320e-6
-0.639, 9.272e-6
-0.638, 9.212e-6
-0.637, 9.164e-6
-0.636, 9.122e-6
-0.635, 9.069e-6
-0.634, 9.021e-6
-0.633, 8.982e-6
-0.632, 8.931e-6
-0.631, 8.873e-6
-0.630, 8.840e-6
-0.629, 8.796e-6
-0.628, 8.740e-6
-0.627, 8.700e-6
-0.626, 8.662e-6
-0.625, 8.610e-6
-0.624, 8.567e-6
-0.623, 8.535e-6
-0.622, 8.488e-6
-0.621, 8.437e-6
-0.620, 8.402e-6
-0.619, 8.366e-6
-0.618, 8.318e-6
-0.617, 8.279e-6
-0.616, 8.250e-6
-0.615, 8.200e-6
-0.614, 8.155e-6
-0.613, 8.130e-6
-0.612, 8.088e-6
-0.611, 8.043e-6
-0.610, 8.016e-6
-0.609, 7.982e-6
-0.608, 7.932e-6
-0.607, 7.899e-6
-0.606, 7.872e-6
-0.605, 7.829e-6
-0.604, 7.792e-6
-0.603, 7.770e-6
-0.602, 7.731e-6
-0.601, 7.686e-6
-0.600, 7.661e-6
-0.599, 7.633e-6
-0.598, 7.594e-6
-0.597, 7.570e-6
-0.596, 7.545e-6
-0.595, 7.503e-6
-0.594, 7.473e-6
-0.593, 7.450e-6
-0.592, 7.416e-6
-0.591, 7.377e-6
-0.590, 7.365e-6
-0.589, 7.337e-6
-0.588, 7.300e-6
-0.587, 7.279e-6
-0.586, 7.260e-6
-0.585, 7.222e-6
-0.584, 7.192e-6
-0.583, 7.177e-6
-0.582, 7.150e-6
-0.581, 7.122e-6
-0.580, 7.110e-6
-0.579, 7.091e-6
-0.578, 7.058e-6
-0.577, 7.042e-6
-0.576, 7.029e-6
-0.575, 6.999e-6
-0.574, 6.978e-6
-0.573, 6.972e-6
-0.572, 6.947e-6
-0.571, 6.923e-6
-0.570, 6.915e-6
-0.569, 6.903e-6
-0.568, 6.881e-6
-0.567, 6.871e-6
-0.566, 6.867e-6
-0.565, 6.846e-6
-0.564, 6.837e-6
-0.563, 6.840e-6
-0.562, 6.824e-6
-0.561, 6.811e-6
-0.560, 6.816e-6
-0.559, 6.813e-6
-0.558, 6.800e-6
-0.557, 6.803e-6
-0.556, 6.813e-6
-0.555, 6.807e-6
-0.554, 6.811e-6
-0.553, 6.826e-6
-0.552, 6.833e-6
-0.551, 6.834e-6
-0.550, 6.858e-6
-0.549, 6.875e-6
-0.548, 6.882e-6
-0.547, 6.908e-6
-0.546, 6.937e-6
-0.545, 6.959e-6
-0.544, 6.990e-6
-0.543, 7.032e-6
-0.542, 7.066e-6
-0.541, 7.102e-6
-0.540, 7.150e-6
-0.539, 7.201e-6
-0.538, 7.244e-6
-0.537, 7.300e-6
-0.536, 7.367e-6
-0.535, 7.421e-6
-0.534, 7.493e-6
-0.533, 7.573e-6
-0.532, 7.641e-6
-0.531, 7.718e-6
-0.530, 7.810e-6
-0.529, 7.892e-6
-0.528, 7.979e-6
-0.527, 8.075e-6
-0.526, 8.174e-6
-0.525, 8.269e-6
-0.524, 8.374e-6
-0.523, 8.489e-6
-0.522, 8.592e-6
-0.521, 8.700e-6
-0.520, 8.823e-6
-0.519, 8.944e-6
-0.518, 9.057e-6
-0.517, 9.186e-6
-0.516, 9.319e-6
-0.515, 9.447e-6
-0.514, 9.583e-6
-0.513, 9.726e-6
-0.512, 9.863e-6
-0.511, 1.001e-5
-0.510, 1.016e-5
-0.509, 1.031e-5
-0.508, 1.046e-5
-0.507, 1.062e-5
-0.506, 1.078e-5
-0.505, 1.094e-5
-0.504, 1.111e-5
-0.503, 1.129e-5
-0.502, 1.146e-5
-0.501, 1.163e-5
-0.500, 1.152e-5
-0.501, 1.085e-5
-0.502, 1.033e-5
-0.503, 9.918e-6
-0.504, 9.550e-6
-0.505, 9.217e-6
-0.506, 8.919e-6
-0.507, 8.647e-6
-0.508, 8.384e-6
-0.509, 8.141e-6
-0.510, 7.922e-6
-0.511, 7.705e-6
-0.512, 7.491e-6
-0.513, 7.303e-6
-0.514, 7.123e-6
-0.515, 6.944e-6
-0.516, 6.779e-6
-0.517, 6.623e-6
-0.518, 6.465e-6
-0.519, 6.315e-6
-0.520, 6.173e-6
-0.521, 6.039e-6
-0.522, 5.904e-6
-0.523, 5.782e-6
-0.524, 5.663e-6
-0.525, 5.536e-6
-0.526, 5.421e-6
-0.527, 5.321e-6
-0.528, 5.206e-6
-0.529, 5.103e-6
-0.530, 5.008e-6
-0.531, 4.916e-6
-0.532, 4.814e-6
-0.533, 4.727e-6
-0.534, 4.651e-6
-0.535, 4.559e-6
-0.536, 4.475e-6
-0.537, 4.412e-6
-0.538, 4.337e-6
-0.539, 4.254e-6
-0.540, 4.200e-6
-0.541, 4.135e-6
-0.542, 4.062e-6
-0.543, 4.003e-6
-0.544, 3.950e-6
-0.545, 3.888e-6
-0.546, 3.836e-6
-0.547, 3.791e-6
-0.548, 3.741e-6
-0.549, 3.690e-6
-0.550, 3.660e-6
-0.551, 3.620e-6
-0.552, 3.571e-6
-0.553, 3.539e-6
-0.554, 3.511e-6
-0.555, 3.468e-6
-0.556, 3.440e-6
-0.557, 3.424e-6
-0.558, 3.392e-6
-0.559, 3.360e-6
-0.560, 3.343e-6
-0.561, 3.321e-6
-0.562, 3.287e-6
-0.563, 3.266e-6
-0.564, 3.256e-6
-0.565, 3.232e-6
-0.566, 3.212e-6
-0.567, 3.206e-6
-0.568, 3.184e-6
-0.569, 3.163e-6
-0.570, 3.158e-6
-0.571, 3.142e-6
-0.572, 3.118e-6
-0.573, 3.105e-6
-0.574, 3.103e-6
-0.575, 3.075e-6
-0.576, 3.058e-6
-0.577, 3.055e-6
-0.578, 3.038e-6
-0.579, 3.017e-6
-0.580, 3.015e-6
-0.581, 3.004e-6
-0.582, 2.984e-6
-0.583, 2.977e-6
-0.584, 2.973e-6
-0.585, 2.952e-6
-0.586, 2.939e-6
-0.587, 2.938e-6
-0.588, 2.923e-6
-0.589, 2.904e-6
-0.590, 2.901e-6
-0.591, 2.894e-6
-0.592, 2.870e-6
-0.593, 2.866e-6
-0.594, 2.861e-6
-0.595, 2.839e-6
-0.596, 2.825e-6
-0.597, 2.826e-6
-0.598, 2.810e-6
-0.599, 2.789e-6
-0.600, 2.791e-6
-0.601, 2.781e-6
-0.602, 2.762e-6
-0.603, 2.757e-6
-0.604, 2.755e-6
-0.605, 2.737e-6
-0.606, 2.724e-6
-0.607, 2.725e-6
-0.608, 2.711e-6
-0.609, 2.691e-6
-0.610, 2.693e-6
-0.611, 2.683e-6
-0.612, 2.662e-6
-0.613, 2.656e-6
-0.614, 2.654e-6
-0.615, 2.634e-6
-0.616, 2.619e-6
-0.617, 2.624e-6
-0.618, 2.608e-6
-0.619, 2.589e-6
-0.620, 2.588e-6
-0.621, 2.580e-6
-0.622, 2.557e-6
-0.623, 2.552e-6
-0.624, 2.550e-6
-0.625, 2.530e-6
-0.626, 2.518e-6
-0.627, 2.520e-6
-0.628, 2.505e-6
-0.629, 2.489e-6
-0.630, 2.488e-6
-0.631, 2.481e-6
-0.632, 2.458e-6
-0.633, 2.453e-6
-0.634, 2.453e-6
-0.635, 2.431e-6
-0.636, 2.418e-6
-0.637, 2.419e-6
-0.638, 2.404e-6
-0.639, 2.384e-6
-0.640, 2.386e-6
-0.641, 2.377e-6
-0.642, 2.354e-6
-0.643, 2.349e-6
-0.644, 2.346e-6
-0.645, 2.323e-6
-0.646, 2.309e-6
-0.647, 2.309e-6
-0.648, 2.294e-6
-0.649, 2.278e-6
-0.650, 2.278e-6
-0.651, 2.269e-6
-0.652, 2.249e-6
-0.653, 2.243e-6
-0.654, 2.239e-6
-0.655, 2.219e-6
-0.656, 2.206e-6
-0.657, 2.207e-6
-0.658, 2.190e-6
-0.659, 2.169e-6
-0.660, 2.170e-6
-0.661, 2.159e-6
-0.662, 2.136e-6
-0.663, 2.130e-6
-0.664, 2.125e-6
-0.665, 2.103e-6
-0.666, 2.089e-6
-0.667, 2.088e-6
-0.668, 2.071e-6
-0.669, 2.050e-6
-0.670, 2.049e-6
-0.671, 2.039e-6
-0.672, 2.017e-6
-0.673, 2.009e-6
-0.674, 2.004e-6
-0.675, 1.984e-6
-0.676, 1.969e-6
-0.677, 1.968e-6
-0.678, 1.949e-6
-0.679, 1.929e-6
-0.680, 1.924e-6
-0.681, 1.912e-6
-0.682, 1.887e-6
-0.683, 1.876e-6
-0.684, 1.872e-6
-0.685, 1.844e-6
-0.686, 1.828e-6
-0.687, 1.824e-6
-0.688, 1.803e-6
-0.689, 1.782e-6
-0.690, 1.777e-6
-0.691, 1.765e-6
-0.692, 1.740e-6
-0.693, 1.728e-6
-0.694, 1.722e-6
-0.695, 1.695e-6
-0.696, 1.674e-6
-0.697, 1.669e-6
-0.698, 1.647e-6
-0.699, 1.620e-6
-0.700, 1.611e-6
-0.701, 1.594e-6
-0.702, 1.565e-6
-0.703, 1.552e-6
-0.704, 1.539e-6
-0.705, 1.511e-6
-0.706, 1.491e-6
-0.707, 1.482e-6
-0.708, 1.457e-6
-0.709, 1.428e-6
-0.710, 1.417e-6
-0.711, 1.397e-6
-0.712, 1.362e-6
-0.713, 1.344e-6
-0.714, 1.328e-6
-0.715, 1.295e-6
-0.716, 1.273e-6
-0.717, 1.256e-6
-0.718, 1.230e-6
-0.719, 1.197e-6
-0.720, 1.182e-6
-0.721, 1.156e-6
-0.722, 1.116e-6
-0.723, 1.094e-6
-0.724, 1.073e-6
-0.725, 1.035e-6
-0.726, 1.005e-6
-0.727, 9.867e-7
-0.728, 9.509e-7
-0.729, 9.127e-7
-0.730, 8.882e-7
-0.731, 8.535e-7
-0.732, 8.131e-7
-0.733, 7.855e-7
-0.734, 7.544e-7
-0.735, 7.117e-7
-0.736, 6.740e-7
-0.737, 6.457e-7
-0.738, 5.970e-7
-0.739, 5.491e-7
-0.740, 5.208e-7
-0.741, 4.797e-7
-0.742, 4.331e-7
-0.743, 3.938e-7
-0.744, 3.517e-7
-0.745, 3.013e-7
-0.746, 2.545e-7
-0.747, 2.133e-7
-0.748, 1.536e-7
-0.749, 9.536e-8
-0.750, 5.020e-8
-0.751, -4.107e-9
-0.752, -6.921e-8
-0.753, -1.227e-7
-0.754, -1.749e-7
-0.755, -2.462e-7
-0.756, -3.063e-7
-0.757, -3.699e-7
-0.758, -4.415e-7
-0.759, -5.082e-7
-0.760, -5.744e-7
-0.761, -6.448e-7
-0.762, -7.220e-7
-0.763, -7.969e-7
-0.764, -8.727e-7
-0.765, -9.622e-7
-0.766, -1.046e-6
-0.767, -1.126e-6
-0.768, -1.227e-6
-0.769, -1.321e-6
-0.770, -1.410e-6
-0.771, -1.503e-6
-0.772, -1.610e-6
-0.773, -1.708e-6
-0.774, -1.810e-6
-0.775, -1.919e-6
-0.776, -2.035e-6
-0.777, -2.141e-6
-0.778, -2.263e-6
-0.779, -2.389e-6
-0.780, -2.512e-6
-0.781, -2.642e-6
-0.782, -2.777e-6
-0.783, -2.911e-6
-0.784, -3.049e-6
-0.785, -3.195e-6
-0.786, -3.346e-6
-0.787, -3.492e-6
-0.788, -3.648e-6
-0.789, -3.816e-6
-0.790, -3.977e-6
-0.791, -4.147e-6
-0.792, -4.322e-6
-0.793, -4.489e-6
-0.794, -4.663e-6
-0.795, -4.859e-6
-0.796, -5.048e-6
-0.797, -5.243e-6
-0.798, -5.458e-6
-0.799, -5.666e-6
-0.800, -5.868e-6
-0.801, -6.086e-6
-0.802, -6.313e-6
-0.803, -6.536e-6
-0.804, -6.773e-6
-0.805, -7.019e-6
-0.806, -7.258e-6
-0.807, -7.506e-6
-0.808, -7.779e-6
-0.809, -8.034e-6
-0.810, -8.299e-6
-0.811, -8.581e-6
-0.812, -8.851e-6
-0.813, -9.132e-6
-0.814, -9.431e-6
-0.815, -9.718e-6
-0.816, -1.002e-5
-0.817, -1.032e-5
-0.818, -1.065e-5
-0.819, -1.092e-5
-0.820, -1.122e-5
-0.821, -1.158e-5
-0.822, -1.191e-5
-0.823, -1.226e-5
-0.824, -1.263e-5
-0.825, -1.297e-5
-0.826, -1.333e-5
-0.827, -1.369e-5
-0.828, -1.407e-5
-0.829, -1.444e-5
-0.830, -1.483e-5
-0.831, -1.522e-5
-0.832, -1.563e-5
-0.833, -1.601e-5
-0.834, -1.644e-5
-0.835, -1.683e-5
-0.836, -1.723e-5
-0.837, -1.765e-5
-0.838, -1.809e-5
-0.839, -1.849e-5
-0.840, -1.893e-5
-0.841, -1.937e-5
-0.842, -1.979e-5
-0.843, -2.024e-5
-0.844, -2.070e-5
-0.845, -2.110e-5
-0.846, -2.154e-5
-0.847, -2.201e-5
-0.848, -2.248e-5
-0.849, -2.292e-5
-0.850, -2.339e-5
-0.851, -2.386e-5
-0.852, -2.430e-5
-0.853, -2.477e-5
-0.854, -2.524e-5
-0.855, -2.570e-5
-0.856, -2.616e-5
-0.857, -2.665e-5
-0.858, -2.713e-5
-0.859, -2.759e-5
-0.860, -2.804e-5
-0.861, -2.853e-5
-0.862, -2.898e-5
-0.863, -2.944e-5
-0.864, -2.991e-5
-0.865, -3.037e-5
-0.866, -3.082e-5
-0.867, -3.127e-5
-0.868, -3.173e-5
-0.869, -3.218e-5
-0.870, -3.263e-5
-0.871, -3.311e-5
-0.872, -3.353e-5
-0.873, -3.396e-5
-0.874, -3.439e-5
-0.875, -3.482e-5
-0.876, -3.523e-5
-0.877, -3.565e-5
-0.878, -3.608e-5
-0.879, -3.646e-5
-0.880, -3.686e-5
-0.881, -3.727e-5
-0.882, -3.765e-5
-0.883, -3.803e-5
-0.884, -3.842e-5
-0.885, -3.880e-5
-0.886, -3.915e-5
-0.887, -3.952e-5
-0.888, -3.988e-5
-0.889, -4.021e-5
-0.890, -4.055e-5
-0.891, -4.089e-5
-0.892, -4.120e-5
-0.893, -4.152e-5
-0.894, -4.185e-5
-0.895, -4.215e-5
-0.896, -4.240e-5
-0.897, -4.270e-5
-0.898, -4.300e-5
-0.899, -4.326e-5
-0.900, -4.353e-5
-0.901, -4.380e-5
-0.902, -4.405e-5
-0.903, -4.428e-5
-0.904, -4.454e-5
-0.905, -4.476e-5
-0.906, -4.497e-5
-0.907, -4.520e-5
-0.908, -4.542e-5
-0.909, -4.560e-5
-0.910, -4.580e-5
-0.911, -4.601e-5
-0.912, -4.618e-5
-0.913, -4.635e-5
-0.914, -4.653e-5
-0.915, -4.668e-5
-0.916, -4.683e-5
-0.917, -4.700e-5
-0.918, -4.713e-5
-0.919, -4.726e-5
-0.920, -4.739e-5
-0.921, -4.753e-5
-0.922, -4.767e-5
-0.923, -4.777e-5
-0.924, -4.788e-5
-0.925, -4.798e-5
-0.926, -4.806e-5
-0.927, -4.816e-5
-0.928, -4.824e-5
-0.929, -4.831e-5
-0.930, -4.839e-5
-0.931, -4.846e-5
-0.932, -4.851e-5
-0.933, -4.856e-5
-0.934, -4.862e-5
-0.935, -4.868e-5
-0.936, -4.871e-5
-0.937, -4.875e-5
-0.938, -4.880e-5
-0.939, -4.882e-5
-0.940, -4.884e-5
-0.941, -4.887e-5
-0.942, -4.889e-5
-0.943, -4.890e-5
-0.944, -4.891e-5
-0.945, -4.893e-5
-0.946, -4.893e-5
-0.947, -4.891e-5
-0.948, -4.890e-5
-0.949, -4.890e-5
-0.950, -4.889e-5
-0.951, -4.888e-5
-0.952, -4.887e-5
-0.953, -4.884e-5
-0.954, -4.883e-5
-0.955, -4.881e-5
-0.956, -4.878e-5
-0.957, -4.874e-5
-0.958, -4.871e-5
-0.959, -4.868e-5
-0.960, -4.864e-5
-0.961, -4.860e-5
-0.962, -4.857e-5
-0.963, -4.852e-5
-0.964, -4.848e-5
-0.965, -4.843e-5
-0.966, -4.837e-5
-0.967, -4.833e-5
-0.968, -4.828e-5
-0.969, -4.822e-5
-0.970, -4.815e-5
-0.971, -4.810e-5
-0.972, -4.804e-5
-0.973, -4.798e-5
-0.974, -4.792e-5
-0.975, -4.786e-5
-0.976, -4.779e-5
-0.977, -4.771e-5
-0.978, -4.765e-5
-0.979, -4.758e-5
-0.980, -4.749e-5
-0.981, -4.742e-5
-0.982, -4.736e-5
-0.983, -4.727e-5
-0.984, -4.720e-5
-0.985, -4.713e-5
-0.986, -4.705e-5
-0.987, -4.696e-5
-0.988, -4.689e-5
-0.989, -4.681e-5
-0.990, -4.672e-5
-0.991, -4.664e-5
-0.992, -4.656e-5
-0.993, -4.647e-5
-0.994, -4.639e-5
-0.995, -4.631e-5
-0.996, -4.622e-5
-0.997, -4.613e-5
-0.998, -4.605e-5
-0.999, -4.596e-5
-1.000, -4.587e-5
-1.001, -4.578e-5
-1.002, -4.570e-5
-1.003, -4.561e-5
-1.004, -4.552e-5
-1.005, -4.543e-5
-1.006, -4.535e-5
-1.007, -4.525e-5
-1.008, -4.517e-5
-1.009, -4.508e-5
-1.010, -4.499e-5
-1.011, -4.491e-5
-1.012, -4.482e-5
-1.013, -4.473e-5
-1.014, -4.465e-5
-1.015, -4.456e-5
-1.016, -4.448e-5
-1.017, -4.439e-5
-1.018, -4.430e-5
-1.019, -4.422e-5
-1.020, -4.412e-5
-1.021, -4.403e-5
-1.022, -4.395e-5
-1.023, -4.386e-5
-1.024, -4.377e-5
-1.025, -4.369e-5
-1.026, -4.361e-5
-1.027, -4.351e-5
-1.028, -4.343e-5
-1.029, -4.335e-5
-1.030, -4.325e-5
-1.031, -4.317e-5
-1.032, -4.309e-5
-1.033, -4.300e-5
-1.034, -4.292e-5
-1.035, -4.284e-5
-1.036, -4.275e-5
-1.037, -4.266e-5
-1.038, -4.258e-5
-1.039, -4.251e-5
-1.040, -4.242e-5
-1.041, -4.233e-5
-1.042, -4.226e-5
-1.043, -4.218e-5
-1.044, -4.209e-5
-1.045, -4.202e-5
-1.046, -4.194e-5
-1.047, -4.185e-5
-1.048, -4.178e-5
-1.049, -4.170e-5
-1.050, -4.161e-5
-1.051, -4.153e-5
-1.052, -4.147e-5
-1.053, -4.138e-5
-1.054, -4.130e-5
-1.055, -4.124e-5
-1.056, -4.116e-5
-1.057, -4.107e-5
-1.058, -4.101e-5
-1.059, -4.094e-5
-1.060, -4.085e-5
-1.061, -4.078e-5
-1.062, -4.072e-5
-1.063, -4.064e-5
-1.064, -4.056e-5
-1.065, -4.050e-5
-1.066, -4.043e-5
-1.067, -4.035e-5
-1.068, -4.028e-5
-1.069, -4.022e-5
-1.070, -4.014e-5
-1.071, -4.007e-5
-1.072, -4.001e-5
-1.073, -3.994e-5
-1.074, -3.986e-5
-1.075, -3.981e-5
-1.076, -3.974e-5
-1.077, -3.966e-5
-1.078, -3.960e-5
-1.079, -3.954e-5
-1.080, -3.947e-5
-1.081, -3.940e-5
-1.082, -3.934e-5
-1.083, -3.928e-5
-1.084, -3.921e-5
-1.085, -3.915e-5
-1.086, -3.909e-5
-1.087, -3.902e-5
-1.088, -3.896e-5
-1.089, -3.890e-5
-1.090, -3.883e-5
-1.091, -3.877e-5
-1.092, -3.872e-5
-1.093, -3.865e-5
-1.094, -3.859e-5
-1.095, -3.854e-5
-1.096, -3.848e-5
-1.097, -3.841e-5
-1.098, -3.835e-5
-1.099, -3.831e-5
-1.100, -3.824e-5
-1.101, -3.818e-5
-1.102, -3.813e-5
-1.103, -3.807e-5
-1.104, -3.801e-5
-1.105, -3.796e-5
-1.106, -3.791e-5
-1.107, -3.784e-5
-1.108, -3.779e-5
-1.109, -3.774e-5
-1.110, -3.768e-5
-1.111, -3.762e-5
-1.112, -3.758e-5
-1.113, -3.752e-5
-1.114, -3.746e-5
-1.115, -3.742e-5
-1.116, -3.737e-5
-1.117, -3.731e-5
-1.118, -3.726e-5
-1.119, -3.722e-5
-1.120, -3.716e-5
-1.121, -3.711e-5
-1.122, -3.707e-5
-1.123, -3.701e-5
-1.124, -3.695e-5
-1.125, -3.692e-5
-1.126, -3.687e-5
-1.127, -3.682e-5
-1.128, -3.677e-5
-1.129, -3.673e-5
-1.130, -3.668e-5
-1.131, -3.663e-5
-1.132, -3.659e-5
-1.133, -3.654e-5
-1.134, -3.649e-5
-1.135, -3.645e-5
-1.136, -3.641e-5
-1.137, -3.636e-5
-1.138, -3.632e-5
-1.139, -3.628e-5
-1.140, -3.622e-5
-1.141, -3.618e-5
-1.142, -3.615e-5
-1.143, -3.610e-5
-1.144, -3.605e-5
-1.145, -3.601e-5
-1.146, -3.597e-5
-1.147, -3.592e-5
-1.148, -3.588e-5
-1.149, -3.585e-5
-1.150, -3.579e-5
-1.151, -3.575e-5
-1.152, -3.572e-5
-1.153, -3.568e-5
-1.154, -3.563e-5
-1.155, -3.560e-5
-1.156, -3.556e-5
-1.157, -3.551e-5
-1.158, -3.547e-5
-1.159, -3.544e-5
-1.160, -3.540e-5
-1.161, -3.536e-5
-1.162, -3.533e-5
-1.163, -3.529e-5
-1.164, -3.524e-5
-1.165, -3.522e-5
-1.166, -3.518e-5
-1.167, -3.513e-5
-1.168, -3.510e-5
-1.169, -3.507e-5
-1.170, -3.503e-5
-1.171, -3.499e-5
-1.172, -3.496e-5
-1.173, -3.493e-5
-1.174, -3.488e-5
-1.175, -3.486e-5
-1.176, -3.482e-5
-1.177, -3.478e-5
-1.178, -3.475e-5
-1.179, -3.472e-5
-1.180, -3.468e-5
-1.181, -3.465e-5
-1.182, -3.462e-5
-1.183, -3.459e-5
-1.184, -3.454e-5
-1.185, -3.452e-5
-1.186, -3.449e-5
-1.187, -3.445e-5
-1.188, -3.442e-5
-1.189, -3.440e-5
-1.190, -3.435e-5
-1.191, -3.432e-5
-1.192, -3.430e-5
-1.193, -3.427e-5
-1.194, -3.423e-5
-1.195, -3.421e-5
-1.196, -3.418e-5
-1.197, -3.414e-5
-1.198, -3.411e-5
-1.199, -3.409e-5
