May 10, 2022   10:14:01
Cyclic Voltammetry
File: c:\users\nstumme\onedrive - university of iowa\documents\year 3\220510\tq\300 mv.csv
Data Source:  Experiment
Instrument Model:  CHI660D
Header: 
Note: 

Init E (V) = -1.2
High E (V) = -0.5
Low E (V) = -1.2
Init P/N = P
Scan Rate (V/s) = 0.3
Segment = 6
Sample Interval (V) = 0.001
Quiet Time (sec) = 2
Sensitivity (A/V) = 1e-4

Segment 1:

Segment 2:

Segment 3:

Segment 4:

Segment 5:

Segment 6:

Potential/V, Current/A

-1.200, -5.847e-5
-1.199, -5.835e-5
-1.198, -5.826e-5
-1.197, -5.820e-5
-1.196, -5.814e-5
-1.195, -5.808e-5
-1.194, -5.799e-5
-1.193, -5.792e-5
-1.192, -5.786e-5
-1.191, -5.780e-5
-1.190, -5.774e-5
-1.189, -5.768e-5
-1.188, -5.762e-5
-1.187, -5.756e-5
-1.186, -5.750e-5
-1.185, -5.744e-5
-1.184, -5.738e-5
-1.183, -5.732e-5
-1.182, -5.726e-5
-1.181, -5.719e-5
-1.180, -5.716e-5
-1.179, -5.707e-5
-1.178, -5.701e-5
-1.177, -5.698e-5
-1.176, -5.692e-5
-1.175, -5.686e-5
-1.174, -5.680e-5
-1.173, -5.674e-5
-1.172, -5.668e-5
-1.171, -5.665e-5
-1.170, -5.659e-5
-1.169, -5.653e-5
-1.168, -5.646e-5
-1.167, -5.640e-5
-1.166, -5.634e-5
-1.165, -5.631e-5
-1.164, -5.625e-5
-1.163, -5.619e-5
-1.162, -5.613e-5
-1.161, -5.610e-5
-1.160, -5.604e-5
-1.159, -5.598e-5
-1.158, -5.592e-5
-1.157, -5.586e-5
-1.156, -5.583e-5
-1.155, -5.577e-5
-1.154, -5.570e-5
-1.153, -5.564e-5
-1.152, -5.558e-5
-1.151, -5.555e-5
-1.150, -5.549e-5
-1.149, -5.543e-5
-1.148, -5.537e-5
-1.147, -5.534e-5
-1.146, -5.528e-5
-1.145, -5.522e-5
-1.144, -5.516e-5
-1.143, -5.510e-5
-1.142, -5.507e-5
-1.141, -5.501e-5
-1.140, -5.494e-5
-1.139, -5.488e-5
-1.138, -5.482e-5
-1.137, -5.479e-5
-1.136, -5.473e-5
-1.135, -5.470e-5
-1.134, -5.461e-5
-1.133, -5.458e-5
-1.132, -5.452e-5
-1.131, -5.446e-5
-1.130, -5.440e-5
-1.129, -5.434e-5
-1.128, -5.431e-5
-1.127, -5.424e-5
-1.126, -5.418e-5
-1.125, -5.415e-5
-1.124, -5.409e-5
-1.123, -5.403e-5
-1.122, -5.397e-5
-1.121, -5.394e-5
-1.120, -5.388e-5
-1.119, -5.382e-5
-1.118, -5.376e-5
-1.117, -5.373e-5
-1.116, -5.367e-5
-1.115, -5.361e-5
-1.114, -5.355e-5
-1.113, -5.348e-5
-1.112, -5.345e-5
-1.111, -5.339e-5
-1.110, -5.333e-5
-1.109, -5.327e-5
-1.108, -5.324e-5
-1.107, -5.318e-5
-1.106, -5.312e-5
-1.105, -5.306e-5
-1.104, -5.303e-5
-1.103, -5.297e-5
-1.102, -5.291e-5
-1.101, -5.288e-5
-1.100, -5.282e-5
-1.099, -5.275e-5
-1.098, -5.269e-5
-1.097, -5.263e-5
-1.096, -5.260e-5
-1.095, -5.254e-5
-1.094, -5.248e-5
-1.093, -5.242e-5
-1.092, -5.236e-5
-1.091, -5.233e-5
-1.090, -5.227e-5
-1.089, -5.221e-5
-1.088, -5.215e-5
-1.087, -5.209e-5
-1.086, -5.205e-5
-1.085, -5.199e-5
-1.084, -5.193e-5
-1.083, -5.187e-5
-1.082, -5.181e-5
-1.081, -5.175e-5
-1.080, -5.172e-5
-1.079, -5.163e-5
-1.078, -5.157e-5
-1.077, -5.154e-5
-1.076, -5.148e-5
-1.075, -5.142e-5
-1.074, -5.136e-5
-1.073, -5.129e-5
-1.072, -5.123e-5
-1.071, -5.120e-5
-1.070, -5.111e-5
-1.069, -5.105e-5
-1.068, -5.099e-5
-1.067, -5.093e-5
-1.066, -5.090e-5
-1.065, -5.084e-5
-1.064, -5.075e-5
-1.063, -5.072e-5
-1.062, -5.066e-5
-1.061, -5.060e-5
-1.060, -5.053e-5
-1.059, -5.044e-5
-1.058, -5.038e-5
-1.057, -5.032e-5
-1.056, -5.026e-5
-1.055, -5.023e-5
-1.054, -5.014e-5
-1.053, -5.008e-5
-1.052, -5.002e-5
-1.051, -4.996e-5
-1.050, -4.990e-5
-1.049, -4.983e-5
-1.048, -4.974e-5
-1.047, -4.968e-5
-1.046, -4.962e-5
-1.045, -4.956e-5
-1.044, -4.947e-5
-1.043, -4.941e-5
-1.042, -4.935e-5
-1.041, -4.929e-5
-1.040, -4.923e-5
-1.039, -4.914e-5
-1.038, -4.907e-5
-1.037, -4.898e-5
-1.036, -4.892e-5
-1.035, -4.883e-5
-1.034, -4.877e-5
-1.033, -4.868e-5
-1.032, -4.862e-5
-1.031, -4.856e-5
-1.030, -4.847e-5
-1.029, -4.837e-5
-1.028, -4.831e-5
-1.027, -4.825e-5
-1.026, -4.816e-5
-1.025, -4.807e-5
-1.024, -4.798e-5
-1.023, -4.789e-5
-1.022, -4.783e-5
-1.021, -4.774e-5
-1.020, -4.765e-5
-1.019, -4.755e-5
-1.018, -4.746e-5
-1.017, -4.737e-5
-1.016, -4.731e-5
-1.015, -4.719e-5
-1.014, -4.710e-5
-1.013, -4.701e-5
-1.012, -4.692e-5
-1.011, -4.682e-5
-1.010, -4.670e-5
-1.009, -4.661e-5
-1.008, -4.652e-5
-1.007, -4.640e-5
-1.006, -4.631e-5
-1.005, -4.619e-5
-1.004, -4.606e-5
-1.003, -4.597e-5
-1.002, -4.585e-5
-1.001, -4.573e-5
-1.000, -4.564e-5
-0.999, -4.552e-5
-0.998, -4.539e-5
-0.997, -4.527e-5
-0.996, -4.515e-5
-0.995, -4.500e-5
-0.994, -4.488e-5
-0.993, -4.476e-5
-0.992, -4.463e-5
-0.991, -4.448e-5
-0.990, -4.433e-5
-0.989, -4.421e-5
-0.988, -4.406e-5
-0.987, -4.390e-5
-0.986, -4.375e-5
-0.985, -4.360e-5
-0.984, -4.345e-5
-0.983, -4.330e-5
-0.982, -4.314e-5
-0.981, -4.296e-5
-0.980, -4.278e-5
-0.979, -4.260e-5
-0.978, -4.244e-5
-0.977, -4.226e-5
-0.976, -4.208e-5
-0.975, -4.187e-5
-0.974, -4.168e-5
-0.973, -4.147e-5
-0.972, -4.126e-5
-0.971, -4.108e-5
-0.970, -4.083e-5
-0.969, -4.065e-5
-0.968, -4.044e-5
-0.967, -4.022e-5
-0.966, -3.998e-5
-0.965, -3.974e-5
-0.964, -3.949e-5
-0.963, -3.925e-5
-0.962, -3.904e-5
-0.961, -3.876e-5
-0.960, -3.849e-5
-0.959, -3.822e-5
-0.958, -3.794e-5
-0.957, -3.767e-5
-0.956, -3.737e-5
-0.955, -3.706e-5
-0.954, -3.679e-5
-0.953, -3.648e-5
-0.952, -3.618e-5
-0.951, -3.584e-5
-0.950, -3.551e-5
-0.949, -3.518e-5
-0.948, -3.487e-5
-0.947, -3.454e-5
-0.946, -3.417e-5
-0.945, -3.378e-5
-0.944, -3.341e-5
-0.943, -3.305e-5
-0.942, -3.268e-5
-0.941, -3.226e-5
-0.940, -3.183e-5
-0.939, -3.140e-5
-0.938, -3.101e-5
-0.937, -3.058e-5
-0.936, -3.013e-5
-0.935, -2.964e-5
-0.934, -2.918e-5
-0.933, -2.873e-5
-0.932, -2.827e-5
-0.931, -2.776e-5
-0.930, -2.724e-5
-0.929, -2.672e-5
-0.928, -2.623e-5
-0.927, -2.572e-5
-0.926, -2.514e-5
-0.925, -2.453e-5
-0.924, -2.398e-5
-0.923, -2.341e-5
-0.922, -2.286e-5
-0.921, -2.216e-5
-0.920, -2.152e-5
-0.919, -2.091e-5
-0.918, -2.030e-5
-0.917, -1.967e-5
-0.916, -1.897e-5
-0.915, -1.827e-5
-0.914, -1.763e-5
-0.913, -1.693e-5
-0.912, -1.623e-5
-0.911, -1.547e-5
-0.910, -1.471e-5
-0.909, -1.395e-5
-0.908, -1.322e-5
-0.907, -1.246e-5
-0.906, -1.164e-5
-0.905, -1.078e-5
-0.904, -9.994e-6
-0.903, -9.203e-6
-0.902, -8.412e-6
-0.901, -7.500e-6
-0.900, -6.588e-6
-0.899, -5.706e-6
-0.898, -4.884e-6
-0.897, -3.972e-6
-0.896, -3.060e-6
-0.895, -2.117e-6
-0.894, -1.144e-6
-0.893, -2.617e-7
-0.892, 6.811e-7
-0.891, 1.746e-6
-0.890, 2.780e-6
-0.889, 3.783e-6
-0.888, 4.726e-6
-0.887, 5.730e-6
-0.886, 6.824e-6
-0.885, 7.919e-6
-0.884, 8.984e-6
-0.883, 9.987e-6
-0.882, 1.105e-5
-0.881, 1.221e-5
-0.880, 1.333e-5
-0.879, 1.443e-5
-0.878, 1.552e-5
-0.877, 1.659e-5
-0.876, 1.780e-5
-0.875, 1.899e-5
-0.874, 2.015e-5
-0.873, 2.124e-5
-0.872, 2.237e-5
-0.871, 2.361e-5
-0.870, 2.495e-5
-0.869, 2.608e-5
-0.868, 2.720e-5
-0.867, 2.836e-5
-0.866, 2.960e-5
-0.865, 3.088e-5
-0.864, 3.207e-5
-0.863, 3.319e-5
-0.862, 3.438e-5
-0.861, 3.563e-5
-0.860, 3.690e-5
-0.859, 3.812e-5
-0.858, 3.924e-5
-0.857, 4.043e-5
-0.856, 4.171e-5
-0.855, 4.299e-5
-0.854, 4.414e-5
-0.853, 4.527e-5
-0.852, 4.645e-5
-0.851, 4.767e-5
-0.850, 4.892e-5
-0.849, 5.010e-5
-0.848, 5.117e-5
-0.847, 5.229e-5
-0.846, 5.351e-5
-0.845, 5.472e-5
-0.844, 5.576e-5
-0.843, 5.682e-5
-0.842, 5.792e-5
-0.841, 5.907e-5
-0.840, 6.023e-5
-0.839, 6.132e-5
-0.838, 6.227e-5
-0.837, 6.327e-5
-0.836, 6.440e-5
-0.835, 6.549e-5
-0.834, 6.646e-5
-0.833, 6.738e-5
-0.832, 6.832e-5
-0.831, 6.932e-5
-0.830, 7.033e-5
-0.829, 7.121e-5
-0.828, 7.206e-5
-0.827, 7.288e-5
-0.826, 7.379e-5
-0.825, 7.468e-5
-0.824, 7.547e-5
-0.823, 7.617e-5
-0.822, 7.690e-5
-0.821, 7.766e-5
-0.820, 7.848e-5
-0.819, 7.896e-5
-0.818, 7.945e-5
-0.817, 8.009e-5
-0.816, 8.079e-5
-0.815, 8.143e-5
-0.814, 8.197e-5
-0.813, 8.243e-5
-0.812, 8.292e-5
-0.811, 8.347e-5
-0.810, 8.398e-5
-0.809, 8.435e-5
-0.808, 8.468e-5
-0.807, 8.502e-5
-0.806, 8.544e-5
-0.805, 8.581e-5
-0.804, 8.608e-5
-0.803, 8.623e-5
-0.802, 8.642e-5
-0.801, 8.669e-5
-0.800, 8.690e-5
-0.799, 8.699e-5
-0.798, 8.705e-5
-0.797, 8.711e-5
-0.796, 8.724e-5
-0.795, 8.733e-5
-0.794, 8.730e-5
-0.793, 8.715e-5
-0.792, 8.708e-5
-0.791, 8.708e-5
-0.790, 8.702e-5
-0.789, 8.690e-5
-0.788, 8.672e-5
-0.787, 8.651e-5
-0.786, 8.638e-5
-0.785, 8.623e-5
-0.784, 8.599e-5
-0.783, 8.569e-5
-0.782, 8.541e-5
-0.781, 8.517e-5
-0.780, 8.492e-5
-0.779, 8.459e-5
-0.778, 8.420e-5
-0.777, 8.383e-5
-0.776, 8.353e-5
-0.775, 8.316e-5
-0.774, 8.277e-5
-0.773, 8.231e-5
-0.772, 8.188e-5
-0.771, 8.146e-5
-0.770, 8.103e-5
-0.769, 8.061e-5
-0.768, 8.012e-5
-0.767, 7.966e-5
-0.766, 7.921e-5
-0.765, 7.875e-5
-0.764, 7.823e-5
-0.763, 7.772e-5
-0.762, 7.717e-5
-0.761, 7.668e-5
-0.760, 7.620e-5
-0.759, 7.568e-5
-0.758, 7.513e-5
-0.757, 7.458e-5
-0.756, 7.410e-5
-0.755, 7.361e-5
-0.754, 7.306e-5
-0.753, 7.252e-5
-0.752, 7.197e-5
-0.751, 7.145e-5
-0.750, 7.093e-5
-0.749, 7.042e-5
-0.748, 6.987e-5
-0.747, 6.932e-5
-0.746, 6.881e-5
-0.745, 6.832e-5
-0.744, 6.780e-5
-0.743, 6.726e-5
-0.742, 6.671e-5
-0.741, 6.622e-5
-0.740, 6.573e-5
-0.739, 6.522e-5
-0.738, 6.470e-5
-0.737, 6.418e-5
-0.736, 6.373e-5
-0.735, 6.324e-5
-0.734, 6.275e-5
-0.733, 6.224e-5
-0.732, 6.175e-5
-0.731, 6.132e-5
-0.730, 6.087e-5
-0.729, 6.038e-5
-0.728, 5.993e-5
-0.727, 5.947e-5
-0.726, 5.901e-5
-0.725, 5.856e-5
-0.724, 5.813e-5
-0.723, 5.767e-5
-0.722, 5.725e-5
-0.721, 5.682e-5
-0.720, 5.643e-5
-0.719, 5.597e-5
-0.718, 5.558e-5
-0.717, 5.515e-5
-0.716, 5.476e-5
-0.715, 5.436e-5
-0.714, 5.396e-5
-0.713, 5.357e-5
-0.712, 5.317e-5
-0.711, 5.278e-5
-0.710, 5.241e-5
-0.709, 5.205e-5
-0.708, 5.168e-5
-0.707, 5.132e-5
-0.706, 5.095e-5
-0.705, 5.059e-5
-0.704, 5.022e-5
-0.703, 4.989e-5
-0.702, 4.952e-5
-0.701, 4.919e-5
-0.700, 4.886e-5
-0.699, 4.852e-5
-0.698, 4.822e-5
-0.697, 4.788e-5
-0.696, 4.755e-5
-0.695, 4.724e-5
-0.694, 4.694e-5
-0.693, 4.660e-5
-0.692, 4.630e-5
-0.691, 4.600e-5
-0.690, 4.569e-5
-0.689, 4.542e-5
-0.688, 4.511e-5
-0.687, 4.481e-5
-0.686, 4.454e-5
-0.685, 4.426e-5
-0.684, 4.399e-5
-0.683, 4.372e-5
-0.682, 4.341e-5
-0.681, 4.314e-5
-0.680, 4.289e-5
-0.679, 4.262e-5
-0.678, 4.235e-5
-0.677, 4.210e-5
-0.676, 4.183e-5
-0.675, 4.159e-5
-0.674, 4.134e-5
-0.673, 4.110e-5
-0.672, 4.086e-5
-0.671, 4.061e-5
-0.670, 4.037e-5
-0.669, 4.013e-5
-0.668, 3.991e-5
-0.667, 3.967e-5
-0.666, 3.943e-5
-0.665, 3.921e-5
-0.664, 3.900e-5
-0.663, 3.876e-5
-0.662, 3.855e-5
-0.661, 3.833e-5
-0.660, 3.812e-5
-0.659, 3.791e-5
-0.658, 3.769e-5
-0.657, 3.748e-5
-0.656, 3.727e-5
-0.655, 3.709e-5
-0.654, 3.687e-5
-0.653, 3.669e-5
-0.652, 3.648e-5
-0.651, 3.626e-5
-0.650, 3.608e-5
-0.649, 3.590e-5
-0.648, 3.572e-5
-0.647, 3.553e-5
-0.646, 3.532e-5
-0.645, 3.514e-5
-0.644, 3.496e-5
-0.643, 3.477e-5
-0.642, 3.459e-5
-0.641, 3.441e-5
-0.640, 3.423e-5
-0.639, 3.407e-5
-0.638, 3.389e-5
-0.637, 3.374e-5
-0.636, 3.356e-5
-0.635, 3.337e-5
-0.634, 3.322e-5
-0.633, 3.307e-5
-0.632, 3.289e-5
-0.631, 3.274e-5
-0.630, 3.258e-5
-0.629, 3.243e-5
-0.628, 3.225e-5
-0.627, 3.210e-5
-0.626, 3.195e-5
-0.625, 3.179e-5
-0.624, 3.164e-5
-0.623, 3.149e-5
-0.622, 3.137e-5
-0.621, 3.119e-5
-0.620, 3.106e-5
-0.619, 3.091e-5
-0.618, 3.076e-5
-0.617, 3.064e-5
-0.616, 3.049e-5
-0.615, 3.033e-5
-0.614, 3.021e-5
-0.613, 3.009e-5
-0.612, 2.994e-5
-0.611, 2.979e-5
-0.610, 2.966e-5
-0.609, 2.954e-5
-0.608, 2.939e-5
-0.607, 2.927e-5
-0.606, 2.915e-5
-0.605, 2.900e-5
-0.604, 2.890e-5
-0.603, 2.878e-5
-0.602, 2.863e-5
-0.601, 2.851e-5
-0.600, 2.839e-5
-0.599, 2.827e-5
-0.598, 2.814e-5
-0.597, 2.802e-5
-0.596, 2.790e-5
-0.595, 2.778e-5
-0.594, 2.769e-5
-0.593, 2.757e-5
-0.592, 2.744e-5
-0.591, 2.732e-5
-0.590, 2.720e-5
-0.589, 2.711e-5
-0.588, 2.699e-5
-0.587, 2.690e-5
-0.586, 2.678e-5
-0.585, 2.665e-5
-0.584, 2.656e-5
-0.583, 2.647e-5
-0.582, 2.635e-5
-0.581, 2.626e-5
-0.580, 2.614e-5
-0.579, 2.605e-5
-0.578, 2.595e-5
-0.577, 2.583e-5
-0.576, 2.574e-5
-0.575, 2.565e-5
-0.574, 2.556e-5
-0.573, 2.547e-5
-0.572, 2.538e-5
-0.571, 2.525e-5
-0.570, 2.516e-5
-0.569, 2.507e-5
-0.568, 2.501e-5
-0.567, 2.489e-5
-0.566, 2.480e-5
-0.565, 2.471e-5
-0.564, 2.462e-5
-0.563, 2.456e-5
-0.562, 2.446e-5
-0.561, 2.437e-5
-0.560, 2.428e-5
-0.559, 2.419e-5
-0.558, 2.413e-5
-0.557, 2.404e-5
-0.556, 2.395e-5
-0.555, 2.386e-5
-0.554, 2.379e-5
-0.553, 2.373e-5
-0.552, 2.364e-5
-0.551, 2.355e-5
-0.550, 2.349e-5
-0.549, 2.343e-5
-0.548, 2.334e-5
-0.547, 2.328e-5
-0.546, 2.319e-5
-0.545, 2.313e-5
-0.544, 2.307e-5
-0.543, 2.300e-5
-0.542, 2.291e-5
-0.541, 2.285e-5
-0.540, 2.279e-5
-0.539, 2.273e-5
-0.538, 2.267e-5
-0.537, 2.261e-5
-0.536, 2.255e-5
-0.535, 2.249e-5
-0.534, 2.246e-5
-0.533, 2.240e-5
-0.532, 2.234e-5
-0.531, 2.227e-5
-0.530, 2.221e-5
-0.529, 2.218e-5
-0.528, 2.212e-5
-0.527, 2.209e-5
-0.526, 2.203e-5
-0.525, 2.200e-5
-0.524, 2.197e-5
-0.523, 2.194e-5
-0.522, 2.191e-5
-0.521, 2.188e-5
-0.520, 2.182e-5
-0.519, 2.182e-5
-0.518, 2.179e-5
-0.517, 2.176e-5
-0.516, 2.176e-5
-0.515, 2.173e-5
-0.514, 2.173e-5
-0.513, 2.173e-5
-0.512, 2.173e-5
-0.511, 2.173e-5
-0.510, 2.173e-5
-0.509, 2.176e-5
-0.508, 2.176e-5
-0.507, 2.179e-5
-0.506, 2.182e-5
-0.505, 2.188e-5
-0.504, 2.194e-5
-0.503, 2.197e-5
-0.502, 2.203e-5
-0.501, 2.209e-5
-0.500, 2.203e-5
-0.501, 2.145e-5
-0.502, 2.100e-5
-0.503, 2.063e-5
-0.504, 2.033e-5
-0.505, 2.005e-5
-0.506, 1.981e-5
-0.507, 1.963e-5
-0.508, 1.942e-5
-0.509, 1.923e-5
-0.510, 1.905e-5
-0.511, 1.890e-5
-0.512, 1.875e-5
-0.513, 1.862e-5
-0.514, 1.850e-5
-0.515, 1.838e-5
-0.516, 1.826e-5
-0.517, 1.814e-5
-0.518, 1.805e-5
-0.519, 1.793e-5
-0.520, 1.783e-5
-0.521, 1.774e-5
-0.522, 1.765e-5
-0.523, 1.759e-5
-0.524, 1.750e-5
-0.525, 1.741e-5
-0.526, 1.735e-5
-0.527, 1.726e-5
-0.528, 1.716e-5
-0.529, 1.710e-5
-0.530, 1.704e-5
-0.531, 1.698e-5
-0.532, 1.689e-5
-0.533, 1.683e-5
-0.534, 1.677e-5
-0.535, 1.668e-5
-0.536, 1.662e-5
-0.537, 1.659e-5
-0.538, 1.650e-5
-0.539, 1.643e-5
-0.540, 1.637e-5
-0.541, 1.631e-5
-0.542, 1.625e-5
-0.543, 1.619e-5
-0.544, 1.613e-5
-0.545, 1.607e-5
-0.546, 1.604e-5
-0.547, 1.598e-5
-0.548, 1.592e-5
-0.549, 1.586e-5
-0.550, 1.580e-5
-0.551, 1.574e-5
-0.552, 1.571e-5
-0.553, 1.564e-5
-0.554, 1.558e-5
-0.555, 1.552e-5
-0.556, 1.546e-5
-0.557, 1.543e-5
-0.558, 1.537e-5
-0.559, 1.531e-5
-0.560, 1.525e-5
-0.561, 1.522e-5
-0.562, 1.516e-5
-0.563, 1.513e-5
-0.564, 1.507e-5
-0.565, 1.501e-5
-0.566, 1.498e-5
-0.567, 1.491e-5
-0.568, 1.488e-5
-0.569, 1.482e-5
-0.570, 1.476e-5
-0.571, 1.473e-5
-0.572, 1.470e-5
-0.573, 1.464e-5
-0.574, 1.458e-5
-0.575, 1.452e-5
-0.576, 1.449e-5
-0.577, 1.446e-5
-0.578, 1.440e-5
-0.579, 1.437e-5
-0.580, 1.431e-5
-0.581, 1.425e-5
-0.582, 1.421e-5
-0.583, 1.418e-5
-0.584, 1.412e-5
-0.585, 1.409e-5
-0.586, 1.403e-5
-0.587, 1.400e-5
-0.588, 1.394e-5
-0.589, 1.391e-5
-0.590, 1.385e-5
-0.591, 1.382e-5
-0.592, 1.379e-5
-0.593, 1.373e-5
-0.594, 1.370e-5
-0.595, 1.364e-5
-0.596, 1.361e-5
-0.597, 1.358e-5
-0.598, 1.352e-5
-0.599, 1.348e-5
-0.600, 1.342e-5
-0.601, 1.339e-5
-0.602, 1.336e-5
-0.603, 1.330e-5
-0.604, 1.327e-5
-0.605, 1.321e-5
-0.606, 1.318e-5
-0.607, 1.315e-5
-0.608, 1.309e-5
-0.609, 1.306e-5
-0.610, 1.300e-5
-0.611, 1.297e-5
-0.612, 1.294e-5
-0.613, 1.291e-5
-0.614, 1.285e-5
-0.615, 1.282e-5
-0.616, 1.276e-5
-0.617, 1.272e-5
-0.618, 1.269e-5
-0.619, 1.263e-5
-0.620, 1.260e-5
-0.621, 1.257e-5
-0.622, 1.254e-5
-0.623, 1.248e-5
-0.624, 1.245e-5
-0.625, 1.239e-5
-0.626, 1.236e-5
-0.627, 1.233e-5
-0.628, 1.230e-5
-0.629, 1.224e-5
-0.630, 1.218e-5
-0.631, 1.215e-5
-0.632, 1.212e-5
-0.633, 1.209e-5
-0.634, 1.203e-5
-0.635, 1.199e-5
-0.636, 1.196e-5
-0.637, 1.193e-5
-0.638, 1.187e-5
-0.639, 1.184e-5
-0.640, 1.178e-5
-0.641, 1.175e-5
-0.642, 1.172e-5
-0.643, 1.169e-5
-0.644, 1.163e-5
-0.645, 1.160e-5
-0.646, 1.157e-5
-0.647, 1.154e-5
-0.648, 1.148e-5
-0.649, 1.145e-5
-0.650, 1.139e-5
-0.651, 1.136e-5
-0.652, 1.133e-5
-0.653, 1.130e-5
-0.654, 1.123e-5
-0.655, 1.120e-5
-0.656, 1.114e-5
-0.657, 1.114e-5
-0.658, 1.108e-5
-0.659, 1.102e-5
-0.660, 1.099e-5
-0.661, 1.096e-5
-0.662, 1.093e-5
-0.663, 1.087e-5
-0.664, 1.084e-5
-0.665, 1.078e-5
-0.666, 1.075e-5
-0.667, 1.072e-5
-0.668, 1.066e-5
-0.669, 1.063e-5
-0.670, 1.057e-5
-0.671, 1.053e-5
-0.672, 1.050e-5
-0.673, 1.044e-5
-0.674, 1.041e-5
-0.675, 1.035e-5
-0.676, 1.032e-5
-0.677, 1.029e-5
-0.678, 1.023e-5
-0.679, 1.017e-5
-0.680, 1.014e-5
-0.681, 1.008e-5
-0.682, 1.005e-5
-0.683, 9.987e-6
-0.684, 9.927e-6
-0.685, 9.896e-6
-0.686, 9.866e-6
-0.687, 9.805e-6
-0.688, 9.744e-6
-0.689, 9.714e-6
-0.690, 9.653e-6
-0.691, 9.592e-6
-0.692, 9.562e-6
-0.693, 9.501e-6
-0.694, 9.440e-6
-0.695, 9.410e-6
-0.696, 9.349e-6
-0.697, 9.288e-6
-0.698, 9.227e-6
-0.699, 9.166e-6
-0.700, 9.105e-6
-0.701, 9.075e-6
-0.702, 9.014e-6
-0.703, 8.953e-6
-0.704, 8.893e-6
-0.705, 8.832e-6
-0.706, 8.771e-6
-0.707, 8.710e-6
-0.708, 8.649e-6
-0.709, 8.588e-6
-0.710, 8.497e-6
-0.711, 8.436e-6
-0.712, 8.376e-6
-0.713, 8.315e-6
-0.714, 8.223e-6
-0.715, 8.163e-6
-0.716, 8.102e-6
-0.717, 8.011e-6
-0.718, 7.919e-6
-0.719, 7.859e-6
-0.720, 7.767e-6
-0.721, 7.706e-6
-0.722, 7.615e-6
-0.723, 7.524e-6
-0.724, 7.433e-6
-0.725, 7.372e-6
-0.726, 7.281e-6
-0.727, 7.189e-6
-0.728, 7.098e-6
-0.729, 6.977e-6
-0.730, 6.916e-6
-0.731, 6.794e-6
-0.732, 6.703e-6
-0.733, 6.581e-6
-0.734, 6.490e-6
-0.735, 6.368e-6
-0.736, 6.277e-6
-0.737, 6.155e-6
-0.738, 6.034e-6
-0.739, 5.912e-6
-0.740, 5.790e-6
-0.741, 5.699e-6
-0.742, 5.547e-6
-0.743, 5.426e-6
-0.744, 5.273e-6
-0.745, 5.152e-6
-0.746, 5.000e-6
-0.747, 4.878e-6
-0.748, 4.696e-6
-0.749, 4.574e-6
-0.750, 4.422e-6
-0.751, 4.270e-6
-0.752, 4.087e-6
-0.753, 3.905e-6
-0.754, 3.722e-6
-0.755, 3.570e-6
-0.756, 3.388e-6
-0.757, 3.205e-6
-0.758, 2.992e-6
-0.759, 2.780e-6
-0.760, 2.597e-6
-0.761, 2.415e-6
-0.762, 2.202e-6
-0.763, 1.958e-6
-0.764, 1.746e-6
-0.765, 1.533e-6
-0.766, 1.320e-6
-0.767, 1.046e-6
-0.768, 7.723e-7
-0.769, 5.290e-7
-0.770, 2.857e-7
-0.771, 1.200e-8
-0.772, -2.617e-7
-0.773, -5.658e-7
-0.774, -8.396e-7
-0.775, -1.113e-6
-0.776, -1.417e-6
-0.777, -1.752e-6
-0.778, -2.056e-6
-0.779, -2.391e-6
-0.780, -2.695e-6
-0.781, -3.029e-6
-0.782, -3.425e-6
-0.783, -3.790e-6
-0.784, -4.155e-6
-0.785, -4.489e-6
-0.786, -4.884e-6
-0.787, -5.280e-6
-0.788, -5.706e-6
-0.789, -6.101e-6
-0.790, -6.496e-6
-0.791, -6.922e-6
-0.792, -7.378e-6
-0.793, -7.865e-6
-0.794, -8.260e-6
-0.795, -8.686e-6
-0.796, -9.173e-6
-0.797, -9.659e-6
-0.798, -1.018e-5
-0.799, -1.069e-5
-0.800, -1.118e-5
-0.801, -1.170e-5
-0.802, -1.227e-5
-0.803, -1.285e-5
-0.804, -1.337e-5
-0.805, -1.392e-5
-0.806, -1.449e-5
-0.807, -1.513e-5
-0.808, -1.577e-5
-0.809, -1.635e-5
-0.810, -1.693e-5
-0.811, -1.754e-5
-0.812, -1.824e-5
-0.813, -1.890e-5
-0.814, -1.957e-5
-0.815, -2.021e-5
-0.816, -2.088e-5
-0.817, -2.158e-5
-0.818, -2.234e-5
-0.819, -2.298e-5
-0.820, -2.356e-5
-0.821, -2.429e-5
-0.822, -2.508e-5
-0.823, -2.587e-5
-0.824, -2.663e-5
-0.825, -2.736e-5
-0.826, -2.812e-5
-0.827, -2.894e-5
-0.828, -2.979e-5
-0.829, -3.055e-5
-0.830, -3.131e-5
-0.831, -3.213e-5
-0.832, -3.302e-5
-0.833, -3.387e-5
-0.834, -3.469e-5
-0.835, -3.548e-5
-0.836, -3.630e-5
-0.837, -3.721e-5
-0.838, -3.813e-5
-0.839, -3.895e-5
-0.840, -3.977e-5
-0.841, -4.062e-5
-0.842, -4.153e-5
-0.843, -4.247e-5
-0.844, -4.336e-5
-0.845, -4.412e-5
-0.846, -4.500e-5
-0.847, -4.594e-5
-0.848, -4.688e-5
-0.849, -4.777e-5
-0.850, -4.862e-5
-0.851, -4.947e-5
-0.852, -5.044e-5
-0.853, -5.139e-5
-0.854, -5.227e-5
-0.855, -5.309e-5
-0.856, -5.397e-5
-0.857, -5.491e-5
-0.858, -5.586e-5
-0.859, -5.671e-5
-0.860, -5.756e-5
-0.861, -5.844e-5
-0.862, -5.935e-5
-0.863, -6.027e-5
-0.864, -6.109e-5
-0.865, -6.191e-5
-0.866, -6.273e-5
-0.867, -6.361e-5
-0.868, -6.449e-5
-0.869, -6.535e-5
-0.870, -6.611e-5
-0.871, -6.696e-5
-0.872, -6.781e-5
-0.873, -6.863e-5
-0.874, -6.939e-5
-0.875, -7.009e-5
-0.876, -7.085e-5
-0.877, -7.164e-5
-0.878, -7.243e-5
-0.879, -7.313e-5
-0.880, -7.380e-5
-0.881, -7.447e-5
-0.882, -7.523e-5
-0.883, -7.596e-5
-0.884, -7.660e-5
-0.885, -7.724e-5
-0.886, -7.785e-5
-0.887, -7.851e-5
-0.888, -7.918e-5
-0.889, -7.976e-5
-0.890, -8.028e-5
-0.891, -8.086e-5
-0.892, -8.143e-5
-0.893, -8.201e-5
-0.894, -8.253e-5
-0.895, -8.298e-5
-0.896, -8.341e-5
-0.897, -8.393e-5
-0.898, -8.444e-5
-0.899, -8.487e-5
-0.900, -8.524e-5
-0.901, -8.566e-5
-0.902, -8.609e-5
-0.903, -8.651e-5
-0.904, -8.685e-5
-0.905, -8.718e-5
-0.906, -8.746e-5
-0.907, -8.785e-5
-0.908, -8.822e-5
-0.909, -8.849e-5
-0.910, -8.870e-5
-0.911, -8.898e-5
-0.912, -8.922e-5
-0.913, -8.949e-5
-0.914, -8.971e-5
-0.915, -8.986e-5
-0.916, -9.004e-5
-0.917, -9.025e-5
-0.918, -9.044e-5
-0.919, -9.056e-5
-0.920, -9.065e-5
-0.921, -9.074e-5
-0.922, -9.095e-5
-0.923, -9.104e-5
-0.924, -9.111e-5
-0.925, -9.114e-5
-0.926, -9.120e-5
-0.927, -9.126e-5
-0.928, -9.135e-5
-0.929, -9.135e-5
-0.930, -9.132e-5
-0.931, -9.132e-5
-0.932, -9.132e-5
-0.933, -9.135e-5
-0.934, -9.129e-5
-0.935, -9.123e-5
-0.936, -9.120e-5
-0.937, -9.114e-5
-0.938, -9.111e-5
-0.939, -9.104e-5
-0.940, -9.092e-5
-0.941, -9.083e-5
-0.942, -9.077e-5
-0.943, -9.071e-5
-0.944, -9.059e-5
-0.945, -9.044e-5
-0.946, -9.031e-5
-0.947, -9.019e-5
-0.948, -9.007e-5
-0.949, -8.992e-5
-0.950, -8.974e-5
-0.951, -8.961e-5
-0.952, -8.946e-5
-0.953, -8.934e-5
-0.954, -8.916e-5
-0.955, -8.898e-5
-0.956, -8.879e-5
-0.957, -8.864e-5
-0.958, -8.849e-5
-0.959, -8.831e-5
-0.960, -8.809e-5
-0.961, -8.791e-5
-0.962, -8.773e-5
-0.963, -8.755e-5
-0.964, -8.736e-5
-0.965, -8.715e-5
-0.966, -8.694e-5
-0.967, -8.673e-5
-0.968, -8.654e-5
-0.969, -8.633e-5
-0.970, -8.612e-5
-0.971, -8.590e-5
-0.972, -8.569e-5
-0.973, -8.551e-5
-0.974, -8.530e-5
-0.975, -8.505e-5
-0.976, -8.481e-5
-0.977, -8.463e-5
-0.978, -8.441e-5
-0.979, -8.417e-5
-0.980, -8.393e-5
-0.981, -8.371e-5
-0.982, -8.350e-5
-0.983, -8.329e-5
-0.984, -8.305e-5
-0.985, -8.283e-5
-0.986, -8.259e-5
-0.987, -8.238e-5
-0.988, -8.216e-5
-0.989, -8.192e-5
-0.990, -8.168e-5
-0.991, -8.143e-5
-0.992, -8.122e-5
-0.993, -8.101e-5
-0.994, -8.080e-5
-0.995, -8.055e-5
-0.996, -8.031e-5
-0.997, -8.010e-5
-0.998, -7.988e-5
-0.999, -7.964e-5
-1.000, -7.940e-5
-1.001, -7.918e-5
-1.002, -7.897e-5
-1.003, -7.876e-5
-1.004, -7.851e-5
-1.005, -7.830e-5
-1.006, -7.806e-5
-1.007, -7.785e-5
-1.008, -7.763e-5
-1.009, -7.742e-5
-1.010, -7.721e-5
-1.011, -7.699e-5
-1.012, -7.678e-5
-1.013, -7.657e-5
-1.014, -7.635e-5
-1.015, -7.611e-5
-1.016, -7.590e-5
-1.017, -7.569e-5
-1.018, -7.550e-5
-1.019, -7.529e-5
-1.020, -7.508e-5
-1.021, -7.486e-5
-1.022, -7.465e-5
-1.023, -7.447e-5
-1.024, -7.426e-5
-1.025, -7.404e-5
-1.026, -7.386e-5
-1.027, -7.365e-5
-1.028, -7.344e-5
-1.029, -7.325e-5
-1.030, -7.304e-5
-1.031, -7.286e-5
-1.032, -7.264e-5
-1.033, -7.246e-5
-1.034, -7.228e-5
-1.035, -7.210e-5
-1.036, -7.188e-5
-1.037, -7.170e-5
-1.038, -7.152e-5
-1.039, -7.134e-5
-1.040, -7.115e-5
-1.041, -7.094e-5
-1.042, -7.076e-5
-1.043, -7.058e-5
-1.044, -7.042e-5
-1.045, -7.024e-5
-1.046, -7.003e-5
-1.047, -6.988e-5
-1.048, -6.969e-5
-1.049, -6.951e-5
-1.050, -6.933e-5
-1.051, -6.918e-5
-1.052, -6.899e-5
-1.053, -6.881e-5
-1.054, -6.866e-5
-1.055, -6.848e-5
-1.056, -6.833e-5
-1.057, -6.814e-5
-1.058, -6.799e-5
-1.059, -6.784e-5
-1.060, -6.766e-5
-1.061, -6.750e-5
-1.062, -6.732e-5
-1.063, -6.717e-5
-1.064, -6.702e-5
-1.065, -6.687e-5
-1.066, -6.671e-5
-1.067, -6.653e-5
-1.068, -6.638e-5
-1.069, -6.626e-5
-1.070, -6.611e-5
-1.071, -6.595e-5
-1.072, -6.580e-5
-1.073, -6.562e-5
-1.074, -6.550e-5
-1.075, -6.535e-5
-1.076, -6.519e-5
-1.077, -6.507e-5
-1.078, -6.492e-5
-1.079, -6.477e-5
-1.080, -6.462e-5
-1.081, -6.449e-5
-1.082, -6.434e-5
-1.083, -6.419e-5
-1.084, -6.407e-5
-1.085, -6.395e-5
-1.086, -6.379e-5
-1.087, -6.364e-5
-1.088, -6.352e-5
-1.089, -6.340e-5
-1.090, -6.325e-5
-1.091, -6.313e-5
-1.092, -6.297e-5
-1.093, -6.285e-5
-1.094, -6.273e-5
-1.095, -6.261e-5
-1.096, -6.249e-5
-1.097, -6.236e-5
-1.098, -6.224e-5
-1.099, -6.212e-5
-1.100, -6.197e-5
-1.101, -6.185e-5
-1.102, -6.173e-5
-1.103, -6.160e-5
-1.104, -6.151e-5
-1.105, -6.139e-5
-1.106, -6.127e-5
-1.107, -6.112e-5
-1.108, -6.100e-5
-1.109, -6.091e-5
-1.110, -6.078e-5
-1.111, -6.066e-5
-1.112, -6.054e-5
-1.113, -6.045e-5
-1.114, -6.033e-5
-1.115, -6.024e-5
-1.116, -6.011e-5
-1.117, -5.999e-5
-1.118, -5.990e-5
-1.119, -5.978e-5
-1.120, -5.969e-5
-1.121, -5.957e-5
-1.122, -5.945e-5
-1.123, -5.935e-5
-1.124, -5.926e-5
-1.125, -5.914e-5
-1.126, -5.902e-5
-1.127, -5.893e-5
-1.128, -5.881e-5
-1.129, -5.872e-5
-1.130, -5.862e-5
-1.131, -5.850e-5
-1.132, -5.841e-5
-1.133, -5.829e-5
-1.134, -5.823e-5
-1.135, -5.811e-5
-1.136, -5.802e-5
-1.137, -5.792e-5
-1.138, -5.783e-5
-1.139, -5.774e-5
-1.140, -5.762e-5
-1.141, -5.753e-5
-1.142, -5.744e-5
-1.143, -5.735e-5
-1.144, -5.726e-5
-1.145, -5.716e-5
-1.146, -5.707e-5
-1.147, -5.698e-5
-1.148, -5.686e-5
-1.149, -5.680e-5
-1.150, -5.671e-5
-1.151, -5.662e-5
-1.152, -5.653e-5
-1.153, -5.643e-5
-1.154, -5.634e-5
-1.155, -5.625e-5
-1.156, -5.619e-5
-1.157, -5.610e-5
-1.158, -5.601e-5
-1.159, -5.592e-5
-1.160, -5.586e-5
-1.161, -5.577e-5
-1.162, -5.567e-5
-1.163, -5.558e-5
-1.164, -5.552e-5
-1.165, -5.543e-5
-1.166, -5.534e-5
-1.167, -5.525e-5
-1.168, -5.519e-5
-1.169, -5.510e-5
-1.170, -5.504e-5
-1.171, -5.494e-5
-1.172, -5.485e-5
-1.173, -5.479e-5
-1.174, -5.470e-5
-1.175, -5.464e-5
-1.176, -5.455e-5
-1.177, -5.449e-5
-1.178, -5.440e-5
-1.179, -5.434e-5
-1.180, -5.424e-5
-1.181, -5.418e-5
-1.182, -5.409e-5
-1.183, -5.403e-5
-1.184, -5.397e-5
-1.185, -5.388e-5
-1.186, -5.382e-5
-1.187, -5.373e-5
-1.188, -5.367e-5
-1.189, -5.361e-5
-1.190, -5.351e-5
-1.191, -5.345e-5
-1.192, -5.336e-5
-1.193, -5.330e-5
-1.194, -5.324e-5
-1.195, -5.318e-5
-1.196, -5.312e-5
-1.197, -5.303e-5
-1.198, -5.297e-5
-1.199, -5.291e-5
-1.200, -5.278e-5
-1.199, -5.257e-5
-1.198, -5.242e-5
-1.197, -5.227e-5
-1.196, -5.218e-5
-1.195, -5.205e-5
-1.194, -5.193e-5
-1.193, -5.184e-5
-1.192, -5.172e-5
-1.191, -5.163e-5
-1.190, -5.154e-5
-1.189, -5.142e-5
-1.188, -5.133e-5
-1.187, -5.123e-5
-1.186, -5.114e-5
-1.185, -5.105e-5
-1.184, -5.096e-5
-1.183, -5.084e-5
-1.182, -5.075e-5
-1.181, -5.069e-5
-1.180, -5.060e-5
-1.179, -5.050e-5
-1.178, -5.041e-5
-1.177, -5.032e-5
-1.176, -5.023e-5
-1.175, -5.014e-5
-1.174, -5.008e-5
-1.173, -4.996e-5
-1.172, -4.990e-5
-1.171, -4.983e-5
-1.170, -4.974e-5
-1.169, -4.965e-5
-1.168, -4.956e-5
-1.167, -4.950e-5
-1.166, -4.941e-5
-1.165, -4.932e-5
-1.164, -4.926e-5
-1.163, -4.917e-5
-1.162, -4.910e-5
-1.161, -4.901e-5
-1.160, -4.895e-5
-1.159, -4.886e-5
-1.158, -4.880e-5
-1.157, -4.871e-5
-1.156, -4.865e-5
-1.155, -4.856e-5
-1.154, -4.850e-5
-1.153, -4.841e-5
-1.152, -4.834e-5
-1.151, -4.828e-5
-1.150, -4.822e-5
-1.149, -4.813e-5
-1.148, -4.804e-5
-1.147, -4.798e-5
-1.146, -4.792e-5
-1.145, -4.786e-5
-1.144, -4.777e-5
-1.143, -4.771e-5
-1.142, -4.761e-5
-1.141, -4.755e-5
-1.140, -4.749e-5
-1.139, -4.743e-5
-1.138, -4.734e-5
-1.137, -4.728e-5
-1.136, -4.722e-5
-1.135, -4.716e-5
-1.134, -4.707e-5
-1.133, -4.701e-5
-1.132, -4.695e-5
-1.131, -4.688e-5
-1.130, -4.682e-5
-1.129, -4.673e-5
-1.128, -4.667e-5
-1.127, -4.661e-5
-1.126, -4.655e-5
-1.125, -4.649e-5
-1.124, -4.640e-5
-1.123, -4.634e-5
-1.122, -4.628e-5
-1.121, -4.622e-5
-1.120, -4.615e-5
-1.119, -4.609e-5
-1.118, -4.600e-5
-1.117, -4.594e-5
-1.116, -4.588e-5
-1.115, -4.585e-5
-1.114, -4.576e-5
-1.113, -4.570e-5
-1.112, -4.564e-5
-1.111, -4.558e-5
-1.110, -4.552e-5
-1.109, -4.546e-5
-1.108, -4.536e-5
-1.107, -4.533e-5
-1.106, -4.527e-5
-1.105, -4.521e-5
-1.104, -4.515e-5
-1.103, -4.506e-5
-1.102, -4.500e-5
-1.101, -4.494e-5
-1.100, -4.488e-5
-1.099, -4.482e-5
-1.098, -4.476e-5
-1.097, -4.470e-5
-1.096, -4.463e-5
-1.095, -4.460e-5
-1.094, -4.451e-5
-1.093, -4.445e-5
-1.092, -4.439e-5
-1.091, -4.433e-5
-1.090, -4.427e-5
-1.089, -4.421e-5
-1.088, -4.415e-5
-1.087, -4.409e-5
-1.086, -4.403e-5
-1.085, -4.397e-5
-1.084, -4.390e-5
-1.083, -4.384e-5
-1.082, -4.378e-5
-1.081, -4.372e-5
-1.080, -4.366e-5
-1.079, -4.360e-5
-1.078, -4.354e-5
-1.077, -4.348e-5
-1.076, -4.342e-5
-1.075, -4.336e-5
-1.074, -4.330e-5
-1.073, -4.320e-5
-1.072, -4.317e-5
-1.071, -4.311e-5
-1.070, -4.305e-5
-1.069, -4.299e-5
-1.068, -4.293e-5
-1.067, -4.284e-5
-1.066, -4.281e-5
-1.065, -4.275e-5
-1.064, -4.266e-5
-1.063, -4.260e-5
-1.062, -4.254e-5
-1.061, -4.247e-5
-1.060, -4.241e-5
-1.059, -4.235e-5
-1.058, -4.229e-5
-1.057, -4.223e-5
-1.056, -4.217e-5
-1.055, -4.211e-5
-1.054, -4.205e-5
-1.053, -4.199e-5
-1.052, -4.193e-5
-1.051, -4.187e-5
-1.050, -4.178e-5
-1.049, -4.171e-5
-1.048, -4.165e-5
-1.047, -4.159e-5
-1.046, -4.153e-5
-1.045, -4.147e-5
-1.044, -4.141e-5
-1.043, -4.132e-5
-1.042, -4.126e-5
-1.041, -4.120e-5
-1.040, -4.114e-5
-1.039, -4.105e-5
-1.038, -4.098e-5
-1.037, -4.092e-5
-1.036, -4.086e-5
-1.035, -4.077e-5
-1.034, -4.071e-5
-1.033, -4.065e-5
-1.032, -4.056e-5
-1.031, -4.050e-5
-1.030, -4.044e-5
-1.029, -4.038e-5
-1.028, -4.029e-5
-1.027, -4.022e-5
-1.026, -4.013e-5
-1.025, -4.007e-5
-1.024, -4.001e-5
-1.023, -3.989e-5
-1.022, -3.983e-5
-1.021, -3.977e-5
-1.020, -3.968e-5
-1.019, -3.959e-5
-1.018, -3.952e-5
-1.017, -3.943e-5
-1.016, -3.937e-5
-1.015, -3.928e-5
-1.014, -3.919e-5
-1.013, -3.910e-5
-1.012, -3.904e-5
-1.011, -3.895e-5
-1.010, -3.886e-5
-1.009, -3.876e-5
-1.008, -3.867e-5
-1.007, -3.858e-5
-1.006, -3.852e-5
-1.005, -3.843e-5
-1.004, -3.831e-5
-1.003, -3.822e-5
-1.002, -3.813e-5
-1.001, -3.803e-5
-1.000, -3.794e-5
-0.999, -3.782e-5
-0.998, -3.773e-5
-0.997, -3.764e-5
-0.996, -3.752e-5
-0.995, -3.743e-5
-0.994, -3.730e-5
-0.993, -3.718e-5
-0.992, -3.709e-5
-0.991, -3.697e-5
-0.990, -3.685e-5
-0.989, -3.676e-5
-0.988, -3.664e-5
-0.987, -3.651e-5
-0.986, -3.639e-5
-0.985, -3.627e-5
-0.984, -3.615e-5
-0.983, -3.600e-5
-0.982, -3.588e-5
-0.981, -3.575e-5
-0.980, -3.563e-5
-0.979, -3.548e-5
-0.978, -3.533e-5
-0.977, -3.521e-5
-0.976, -3.505e-5
-0.975, -3.490e-5
-0.974, -3.475e-5
-0.973, -3.457e-5
-0.972, -3.442e-5
-0.971, -3.426e-5
-0.970, -3.411e-5
-0.969, -3.393e-5
-0.968, -3.378e-5
-0.967, -3.359e-5
-0.966, -3.341e-5
-0.965, -3.323e-5
-0.964, -3.305e-5
-0.963, -3.286e-5
-0.962, -3.268e-5
-0.961, -3.247e-5
-0.960, -3.229e-5
-0.959, -3.204e-5
-0.958, -3.183e-5
-0.957, -3.165e-5
-0.956, -3.143e-5
-0.955, -3.119e-5
-0.954, -3.095e-5
-0.953, -3.074e-5
-0.952, -3.052e-5
-0.951, -3.028e-5
-0.950, -3.001e-5
-0.949, -2.976e-5
-0.948, -2.949e-5
-0.947, -2.928e-5
-0.946, -2.900e-5
-0.945, -2.873e-5
-0.944, -2.842e-5
-0.943, -2.815e-5
-0.942, -2.785e-5
-0.941, -2.757e-5
-0.940, -2.724e-5
-0.939, -2.690e-5
-0.938, -2.660e-5
-0.937, -2.630e-5
-0.936, -2.596e-5
-0.935, -2.560e-5
-0.934, -2.523e-5
-0.933, -2.490e-5
-0.932, -2.456e-5
-0.931, -2.417e-5
-0.930, -2.377e-5
-0.929, -2.338e-5
-0.928, -2.301e-5
-0.927, -2.262e-5
-0.926, -2.222e-5
-0.925, -2.176e-5
-0.924, -2.134e-5
-0.923, -2.091e-5
-0.922, -2.049e-5
-0.921, -2.000e-5
-0.920, -1.951e-5
-0.919, -1.903e-5
-0.918, -1.857e-5
-0.917, -1.811e-5
-0.916, -1.763e-5
-0.915, -1.708e-5
-0.914, -1.656e-5
-0.913, -1.605e-5
-0.912, -1.556e-5
-0.911, -1.498e-5
-0.910, -1.440e-5
-0.909, -1.383e-5
-0.908, -1.325e-5
-0.907, -1.270e-5
-0.906, -1.212e-5
-0.905, -1.145e-5
-0.904, -1.082e-5
-0.903, -1.021e-5
-0.902, -9.629e-6
-0.901, -8.960e-6
-0.900, -8.260e-6
-0.899, -7.591e-6
-0.898, -6.953e-6
-0.897, -6.283e-6
-0.896, -5.614e-6
-0.895, -4.915e-6
-0.894, -4.124e-6
-0.893, -3.425e-6
-0.892, -2.725e-6
-0.891, -1.995e-6
-0.890, -1.174e-6
-0.889, -3.834e-7
-0.888, 3.465e-7
-0.887, 1.107e-6
-0.886, 1.898e-6
-0.885, 2.749e-6
-0.884, 3.570e-6
-0.883, 4.391e-6
-0.882, 5.152e-6
-0.881, 6.034e-6
-0.880, 6.916e-6
-0.879, 7.798e-6
-0.878, 8.619e-6
-0.877, 9.440e-6
-0.876, 1.026e-5
-0.875, 1.123e-5
-0.874, 1.215e-5
-0.873, 1.300e-5
-0.872, 1.385e-5
-0.871, 1.476e-5
-0.870, 1.580e-5
-0.869, 1.674e-5
-0.868, 1.762e-5
-0.867, 1.850e-5
-0.866, 1.942e-5
-0.865, 2.042e-5
-0.864, 2.133e-5
-0.863, 2.221e-5
-0.862, 2.313e-5
-0.861, 2.404e-5
-0.860, 2.504e-5
-0.859, 2.598e-5
-0.858, 2.687e-5
-0.857, 2.778e-5
-0.856, 2.869e-5
-0.855, 2.966e-5
-0.854, 3.064e-5
-0.853, 3.152e-5
-0.852, 3.237e-5
-0.851, 3.328e-5
-0.850, 3.423e-5
-0.849, 3.517e-5
-0.848, 3.605e-5
-0.847, 3.687e-5
-0.846, 3.775e-5
-0.845, 3.867e-5
-0.844, 3.952e-5
-0.843, 4.034e-5
-0.842, 4.116e-5
-0.841, 4.198e-5
-0.840, 4.286e-5
-0.839, 4.375e-5
-0.838, 4.451e-5
-0.837, 4.521e-5
-0.836, 4.600e-5
-0.835, 4.685e-5
-0.834, 4.764e-5
-0.833, 4.837e-5
-0.832, 4.901e-5
-0.831, 4.971e-5
-0.830, 5.053e-5
-0.829, 5.120e-5
-0.828, 5.184e-5
-0.827, 5.241e-5
-0.826, 5.302e-5
-0.825, 5.369e-5
-0.824, 5.433e-5
-0.823, 5.488e-5
-0.822, 5.536e-5
-0.821, 5.591e-5
-0.820, 5.646e-5
-0.819, 5.688e-5
-0.818, 5.725e-5
-0.817, 5.771e-5
-0.816, 5.813e-5
-0.815, 5.862e-5
-0.814, 5.904e-5
-0.813, 5.938e-5
-0.812, 5.968e-5
-0.811, 6.002e-5
-0.810, 6.038e-5
-0.809, 6.072e-5
-0.808, 6.093e-5
-0.807, 6.114e-5
-0.806, 6.139e-5
-0.805, 6.160e-5
-0.804, 6.184e-5
-0.803, 6.196e-5
-0.802, 6.205e-5
-0.801, 6.218e-5
-0.800, 6.230e-5
-0.799, 6.239e-5
-0.798, 6.245e-5
-0.797, 6.242e-5
-0.796, 6.245e-5
-0.795, 6.251e-5
-0.794, 6.251e-5
-0.793, 6.236e-5
-0.792, 6.230e-5
-0.791, 6.224e-5
-0.790, 6.218e-5
-0.789, 6.208e-5
-0.788, 6.193e-5
-0.787, 6.175e-5
-0.786, 6.160e-5
-0.785, 6.148e-5
-0.784, 6.132e-5
-0.783, 6.111e-5
-0.782, 6.087e-5
-0.781, 6.066e-5
-0.780, 6.044e-5
-0.779, 6.026e-5
-0.778, 5.996e-5
-0.777, 5.965e-5
-0.776, 5.938e-5
-0.775, 5.913e-5
-0.774, 5.886e-5
-0.773, 5.850e-5
-0.772, 5.819e-5
-0.771, 5.786e-5
-0.770, 5.755e-5
-0.769, 5.725e-5
-0.768, 5.691e-5
-0.767, 5.658e-5
-0.766, 5.622e-5
-0.765, 5.588e-5
-0.764, 5.555e-5
-0.763, 5.515e-5
-0.762, 5.476e-5
-0.761, 5.439e-5
-0.760, 5.406e-5
-0.759, 5.369e-5
-0.758, 5.333e-5
-0.757, 5.290e-5
-0.756, 5.254e-5
-0.755, 5.220e-5
-0.754, 5.184e-5
-0.753, 5.144e-5
-0.752, 5.104e-5
-0.751, 5.065e-5
-0.750, 5.031e-5
-0.749, 4.995e-5
-0.748, 4.955e-5
-0.747, 4.919e-5
-0.746, 4.879e-5
-0.745, 4.846e-5
-0.744, 4.809e-5
-0.743, 4.773e-5
-0.742, 4.733e-5
-0.741, 4.697e-5
-0.740, 4.664e-5
-0.739, 4.630e-5
-0.738, 4.594e-5
-0.737, 4.557e-5
-0.736, 4.524e-5
-0.735, 4.490e-5
-0.734, 4.457e-5
-0.733, 4.423e-5
-0.732, 4.387e-5
-0.731, 4.356e-5
-0.730, 4.323e-5
-0.729, 4.292e-5
-0.728, 4.259e-5
-0.727, 4.226e-5
-0.726, 4.195e-5
-0.725, 4.165e-5
-0.724, 4.134e-5
-0.723, 4.104e-5
-0.722, 4.070e-5
-0.721, 4.043e-5
-0.720, 4.013e-5
-0.719, 3.982e-5
-0.718, 3.955e-5
-0.717, 3.924e-5
-0.716, 3.897e-5
-0.715, 3.870e-5
-0.714, 3.842e-5
-0.713, 3.815e-5
-0.712, 3.788e-5
-0.711, 3.760e-5
-0.710, 3.733e-5
-0.709, 3.705e-5
-0.708, 3.681e-5
-0.707, 3.657e-5
-0.706, 3.629e-5
-0.705, 3.605e-5
-0.704, 3.581e-5
-0.703, 3.556e-5
-0.702, 3.532e-5
-0.701, 3.508e-5
-0.700, 3.483e-5
-0.699, 3.462e-5
-0.698, 3.438e-5
-0.697, 3.414e-5
-0.696, 3.392e-5
-0.695, 3.371e-5
-0.694, 3.347e-5
-0.693, 3.328e-5
-0.692, 3.304e-5
-0.691, 3.283e-5
-0.690, 3.261e-5
-0.689, 3.243e-5
-0.688, 3.222e-5
-0.687, 3.201e-5
-0.686, 3.182e-5
-0.685, 3.161e-5
-0.684, 3.140e-5
-0.683, 3.122e-5
-0.682, 3.103e-5
-0.681, 3.085e-5
-0.680, 3.064e-5
-0.679, 3.046e-5
-0.678, 3.030e-5
-0.677, 3.012e-5
-0.676, 2.991e-5
-0.675, 2.976e-5
-0.674, 2.957e-5
-0.673, 2.939e-5
-0.672, 2.924e-5
-0.671, 2.906e-5
-0.670, 2.887e-5
-0.669, 2.872e-5
-0.668, 2.857e-5
-0.667, 2.842e-5
-0.666, 2.824e-5
-0.665, 2.808e-5
-0.664, 2.793e-5
-0.663, 2.778e-5
-0.662, 2.763e-5
-0.661, 2.744e-5
-0.660, 2.729e-5
-0.659, 2.717e-5
-0.658, 2.702e-5
-0.657, 2.687e-5
-0.656, 2.671e-5
-0.655, 2.656e-5
-0.654, 2.644e-5
-0.653, 2.629e-5
-0.652, 2.617e-5
-0.651, 2.602e-5
-0.650, 2.586e-5
-0.649, 2.574e-5
-0.648, 2.562e-5
-0.647, 2.547e-5
-0.646, 2.535e-5
-0.645, 2.522e-5
-0.644, 2.510e-5
-0.643, 2.498e-5
-0.642, 2.483e-5
-0.641, 2.471e-5
-0.640, 2.459e-5
-0.639, 2.446e-5
-0.638, 2.434e-5
-0.637, 2.422e-5
-0.636, 2.410e-5
-0.635, 2.398e-5
-0.634, 2.389e-5
-0.633, 2.376e-5
-0.632, 2.364e-5
-0.631, 2.352e-5
-0.630, 2.340e-5
-0.629, 2.331e-5
-0.628, 2.319e-5
-0.627, 2.310e-5
-0.626, 2.297e-5
-0.625, 2.285e-5
-0.624, 2.276e-5
-0.623, 2.267e-5
-0.622, 2.255e-5
-0.621, 2.246e-5
-0.620, 2.234e-5
-0.619, 2.224e-5
-0.618, 2.215e-5
-0.617, 2.203e-5
-0.616, 2.194e-5
-0.615, 2.185e-5
-0.614, 2.176e-5
-0.613, 2.167e-5
-0.612, 2.157e-5
-0.611, 2.145e-5
-0.610, 2.136e-5
-0.609, 2.127e-5
-0.608, 2.118e-5
-0.607, 2.112e-5
-0.606, 2.100e-5
-0.605, 2.091e-5
-0.604, 2.081e-5
-0.603, 2.075e-5
-0.602, 2.066e-5
-0.601, 2.057e-5
-0.600, 2.048e-5
-0.599, 2.039e-5
-0.598, 2.033e-5
-0.597, 2.024e-5
-0.596, 2.015e-5
-0.595, 2.005e-5
-0.594, 1.999e-5
-0.593, 1.990e-5
-0.592, 1.984e-5
-0.591, 1.975e-5
-0.590, 1.966e-5
-0.589, 1.957e-5
-0.588, 1.951e-5
-0.587, 1.945e-5
-0.586, 1.935e-5
-0.585, 1.929e-5
-0.584, 1.923e-5
-0.583, 1.914e-5
-0.582, 1.908e-5
-0.581, 1.899e-5
-0.580, 1.893e-5
-0.579, 1.887e-5
-0.578, 1.881e-5
-0.577, 1.872e-5
-0.576, 1.866e-5
-0.575, 1.859e-5
-0.574, 1.850e-5
-0.573, 1.844e-5
-0.572, 1.838e-5
-0.571, 1.832e-5
-0.570, 1.826e-5
-0.569, 1.820e-5
-0.568, 1.814e-5
-0.567, 1.808e-5
-0.566, 1.802e-5
-0.565, 1.796e-5
-0.564, 1.789e-5
-0.563, 1.783e-5
-0.562, 1.780e-5
-0.561, 1.774e-5
-0.560, 1.765e-5
-0.559, 1.762e-5
-0.558, 1.759e-5
-0.557, 1.753e-5
-0.556, 1.747e-5
-0.555, 1.741e-5
-0.554, 1.735e-5
-0.553, 1.732e-5
-0.552, 1.726e-5
-0.551, 1.723e-5
-0.550, 1.716e-5
-0.549, 1.710e-5
-0.548, 1.707e-5
-0.547, 1.704e-5
-0.546, 1.701e-5
-0.545, 1.695e-5
-0.544, 1.689e-5
-0.543, 1.686e-5
-0.542, 1.683e-5
-0.541, 1.680e-5
-0.540, 1.677e-5
-0.539, 1.674e-5
-0.538, 1.671e-5
-0.537, 1.665e-5
-0.536, 1.662e-5
-0.535, 1.659e-5
-0.534, 1.659e-5
-0.533, 1.656e-5
-0.532, 1.653e-5
-0.531, 1.650e-5
-0.530, 1.647e-5
-0.529, 1.647e-5
-0.528, 1.647e-5
-0.527, 1.643e-5
-0.526, 1.643e-5
-0.525, 1.643e-5
-0.524, 1.643e-5
-0.523, 1.643e-5
-0.522, 1.643e-5
-0.521, 1.643e-5
-0.520, 1.643e-5
-0.519, 1.647e-5
-0.518, 1.650e-5
-0.517, 1.653e-5
-0.516, 1.656e-5
-0.515, 1.659e-5
-0.514, 1.665e-5
-0.513, 1.668e-5
-0.512, 1.674e-5
-0.511, 1.680e-5
-0.510, 1.686e-5
-0.509, 1.695e-5
-0.508, 1.701e-5
-0.507, 1.710e-5
-0.506, 1.720e-5
-0.505, 1.729e-5
-0.504, 1.744e-5
-0.503, 1.756e-5
-0.502, 1.765e-5
-0.501, 1.780e-5
-0.500, 1.780e-5
-0.501, 1.720e-5
-0.502, 1.668e-5
-0.503, 1.625e-5
-0.504, 1.589e-5
-0.505, 1.558e-5
-0.506, 1.531e-5
-0.507, 1.504e-5
-0.508, 1.479e-5
-0.509, 1.458e-5
-0.510, 1.440e-5
-0.511, 1.418e-5
-0.512, 1.403e-5
-0.513, 1.388e-5
-0.514, 1.373e-5
-0.515, 1.358e-5
-0.516, 1.345e-5
-0.517, 1.333e-5
-0.518, 1.324e-5
-0.519, 1.312e-5
-0.520, 1.300e-5
-0.521, 1.294e-5
-0.522, 1.285e-5
-0.523, 1.276e-5
-0.524, 1.266e-5
-0.525, 1.260e-5
-0.526, 1.254e-5
-0.527, 1.245e-5
-0.528, 1.239e-5
-0.529, 1.233e-5
-0.530, 1.224e-5
-0.531, 1.221e-5
-0.532, 1.215e-5
-0.533, 1.209e-5
-0.534, 1.203e-5
-0.535, 1.196e-5
-0.536, 1.193e-5
-0.537, 1.190e-5
-0.538, 1.184e-5
-0.539, 1.178e-5
-0.540, 1.175e-5
-0.541, 1.169e-5
-0.542, 1.166e-5
-0.543, 1.163e-5
-0.544, 1.157e-5
-0.545, 1.151e-5
-0.546, 1.148e-5
-0.547, 1.145e-5
-0.548, 1.142e-5
-0.549, 1.136e-5
-0.550, 1.133e-5
-0.551, 1.126e-5
-0.552, 1.126e-5
-0.553, 1.120e-5
-0.554, 1.117e-5
-0.555, 1.111e-5
-0.556, 1.108e-5
-0.557, 1.105e-5
-0.558, 1.102e-5
-0.559, 1.099e-5
-0.560, 1.093e-5
-0.561, 1.090e-5
-0.562, 1.087e-5
-0.563, 1.084e-5
-0.564, 1.081e-5
-0.565, 1.075e-5
-0.566, 1.072e-5
-0.567, 1.069e-5
-0.568, 1.066e-5
-0.569, 1.063e-5
-0.570, 1.057e-5
-0.571, 1.053e-5
-0.572, 1.053e-5
-0.573, 1.050e-5
-0.574, 1.044e-5
-0.575, 1.041e-5
-0.576, 1.038e-5
-0.577, 1.035e-5
-0.578, 1.032e-5
-0.579, 1.029e-5
-0.580, 1.026e-5
-0.581, 1.023e-5
-0.582, 1.020e-5
-0.583, 1.017e-5
-0.584, 1.014e-5
-0.585, 1.008e-5
-0.586, 1.005e-5
-0.587, 1.005e-5
-0.588, 1.002e-5
-0.589, 9.987e-6
-0.590, 9.927e-6
-0.591, 9.896e-6
-0.592, 9.896e-6
-0.593, 9.866e-6
-0.594, 9.835e-6
-0.595, 9.805e-6
-0.596, 9.775e-6
-0.597, 9.744e-6
-0.598, 9.714e-6
-0.599, 9.683e-6
-0.600, 9.622e-6
-0.601, 9.592e-6
-0.602, 9.592e-6
-0.603, 9.562e-6
-0.604, 9.531e-6
-0.605, 9.501e-6
-0.606, 9.470e-6
-0.607, 9.440e-6
-0.608, 9.410e-6
-0.609, 9.379e-6
-0.610, 9.349e-6
-0.611, 9.318e-6
-0.612, 9.288e-6
-0.613, 9.258e-6
-0.614, 9.227e-6
-0.615, 9.197e-6
-0.616, 9.166e-6
-0.617, 9.136e-6
-0.618, 9.136e-6
-0.619, 9.105e-6
-0.620, 9.045e-6
-0.621, 9.014e-6
-0.622, 9.014e-6
-0.623, 8.984e-6
-0.624, 8.953e-6
-0.625, 8.923e-6
-0.626, 8.862e-6
-0.627, 8.862e-6
-0.628, 8.832e-6
-0.629, 8.801e-6
-0.630, 8.771e-6
-0.631, 8.741e-6
-0.632, 8.710e-6
-0.633, 8.680e-6
-0.634, 8.649e-6
-0.635, 8.619e-6
-0.636, 8.588e-6
-0.637, 8.588e-6
-0.638, 8.558e-6
-0.639, 8.528e-6
-0.640, 8.497e-6
-0.641, 8.436e-6
-0.642, 8.436e-6
-0.643, 8.406e-6
-0.644, 8.376e-6
-0.645, 8.345e-6
-0.646, 8.315e-6
-0.647, 8.284e-6
-0.648, 8.254e-6
-0.649, 8.223e-6
-0.650, 8.193e-6
-0.651, 8.163e-6
-0.652, 8.132e-6
-0.653, 8.102e-6
-0.654, 8.071e-6
-0.655, 8.041e-6
-0.656, 8.011e-6
-0.657, 7.980e-6
-0.658, 7.950e-6
-0.659, 7.919e-6
-0.660, 7.889e-6
-0.661, 7.859e-6
-0.662, 7.828e-6
-0.663, 7.798e-6
-0.664, 7.767e-6
-0.665, 7.737e-6
-0.666, 7.706e-6
-0.667, 7.676e-6
-0.668, 7.646e-6
-0.669, 7.615e-6
-0.670, 7.585e-6
-0.671, 7.554e-6
-0.672, 7.524e-6
-0.673, 7.494e-6
-0.674, 7.463e-6
-0.675, 7.402e-6
-0.676, 7.372e-6
-0.677, 7.342e-6
-0.678, 7.342e-6
-0.679, 7.281e-6
-0.680, 7.250e-6
-0.681, 7.220e-6
-0.682, 7.189e-6
-0.683, 7.159e-6
-0.684, 7.129e-6
-0.685, 7.068e-6
-0.686, 7.037e-6
-0.687, 7.007e-6
-0.688, 6.977e-6
-0.689, 6.916e-6
-0.690, 6.885e-6
-0.691, 6.855e-6
-0.692, 6.824e-6
-0.693, 6.794e-6
-0.694, 6.733e-6
-0.695, 6.672e-6
-0.696, 6.642e-6
-0.697, 6.612e-6
-0.698, 6.581e-6
-0.699, 6.520e-6
-0.700, 6.490e-6
-0.701, 6.429e-6
-0.702, 6.399e-6
-0.703, 6.338e-6
-0.704, 6.307e-6
-0.705, 6.247e-6
-0.706, 6.186e-6
-0.707, 6.155e-6
-0.708, 6.125e-6
-0.709, 6.064e-6
-0.710, 6.003e-6
-0.711, 5.943e-6
-0.712, 5.912e-6
-0.713, 5.851e-6
-0.714, 5.790e-6
-0.715, 5.730e-6
-0.716, 5.669e-6
-0.717, 5.638e-6
-0.718, 5.578e-6
-0.719, 5.517e-6
-0.720, 5.456e-6
-0.721, 5.395e-6
-0.722, 5.334e-6
-0.723, 5.243e-6
-0.724, 5.182e-6
-0.725, 5.121e-6
-0.726, 5.061e-6
-0.727, 5.000e-6
-0.728, 4.908e-6
-0.729, 4.848e-6
-0.730, 4.756e-6
-0.731, 4.696e-6
-0.732, 4.604e-6
-0.733, 4.513e-6
-0.734, 4.452e-6
-0.735, 4.361e-6
-0.736, 4.270e-6
-0.737, 4.179e-6
-0.738, 4.087e-6
-0.739, 3.996e-6
-0.740, 3.905e-6
-0.741, 3.814e-6
-0.742, 3.722e-6
-0.743, 3.601e-6
-0.744, 3.479e-6
-0.745, 3.388e-6
-0.746, 3.266e-6
-0.747, 3.175e-6
-0.748, 3.053e-6
-0.749, 2.932e-6
-0.750, 2.810e-6
-0.751, 2.688e-6
-0.752, 2.567e-6
-0.753, 2.415e-6
-0.754, 2.263e-6
-0.755, 2.141e-6
-0.756, 1.989e-6
-0.757, 1.837e-6
-0.758, 1.685e-6
-0.759, 1.533e-6
-0.760, 1.381e-6
-0.761, 1.229e-6
-0.762, 1.046e-6
-0.763, 8.636e-7
-0.764, 6.811e-7
-0.765, 5.290e-7
-0.766, 3.465e-7
-0.767, 1.641e-7
-0.768, -7.924e-8
-0.769, -2.921e-7
-0.770, -4.746e-7
-0.771, -6.875e-7
-0.772, -9.004e-7
-0.773, -1.144e-6
-0.774, -1.387e-6
-0.775, -1.600e-6
-0.776, -1.813e-6
-0.777, -2.086e-6
-0.778, -2.330e-6
-0.779, -2.604e-6
-0.780, -2.877e-6
-0.781, -3.121e-6
-0.782, -3.425e-6
-0.783, -3.698e-6
-0.784, -4.033e-6
-0.785, -4.307e-6
-0.786, -4.611e-6
-0.787, -4.915e-6
-0.788, -5.249e-6
-0.789, -5.614e-6
-0.790, -5.919e-6
-0.791, -6.253e-6
-0.792, -6.618e-6
-0.793, -6.983e-6
-0.794, -7.348e-6
-0.795, -7.713e-6
-0.796, -8.078e-6
-0.797, -8.504e-6
-0.798, -8.929e-6
-0.799, -9.355e-6
-0.800, -9.720e-6
-0.801, -1.015e-5
-0.802, -1.060e-5
-0.803, -1.106e-5
-0.804, -1.154e-5
-0.805, -1.200e-5
-0.806, -1.243e-5
-0.807, -1.291e-5
-0.808, -1.346e-5
-0.809, -1.398e-5
-0.810, -1.446e-5
-0.811, -1.492e-5
-0.812, -1.547e-5
-0.813, -1.602e-5
-0.814, -1.656e-5
-0.815, -1.711e-5
-0.816, -1.763e-5
-0.817, -1.817e-5
-0.818, -1.878e-5
-0.819, -1.933e-5
-0.820, -1.985e-5
-0.821, -2.043e-5
-0.822, -2.103e-5
-0.823, -2.170e-5
-0.824, -2.234e-5
-0.825, -2.295e-5
-0.826, -2.356e-5
-0.827, -2.420e-5
-0.828, -2.490e-5
-0.829, -2.557e-5
-0.830, -2.620e-5
-0.831, -2.684e-5
-0.832, -2.754e-5
-0.833, -2.827e-5
-0.834, -2.897e-5
-0.835, -2.961e-5
-0.836, -3.028e-5
-0.837, -3.098e-5
-0.838, -3.174e-5
-0.839, -3.247e-5
-0.840, -3.314e-5
-0.841, -3.381e-5
-0.842, -3.454e-5
-0.843, -3.530e-5
-0.844, -3.606e-5
-0.845, -3.670e-5
-0.846, -3.737e-5
-0.847, -3.810e-5
-0.848, -3.889e-5
-0.849, -3.965e-5
-0.850, -4.035e-5
-0.851, -4.105e-5
-0.852, -4.178e-5
-0.853, -4.257e-5
-0.854, -4.333e-5
-0.855, -4.403e-5
-0.856, -4.470e-5
-0.857, -4.539e-5
-0.858, -4.619e-5
-0.859, -4.692e-5
-0.860, -4.758e-5
-0.861, -4.825e-5
-0.862, -4.895e-5
-0.863, -4.971e-5
-0.864, -5.041e-5
-0.865, -5.105e-5
-0.866, -5.169e-5
-0.867, -5.239e-5
-0.868, -5.309e-5
-0.869, -5.379e-5
-0.870, -5.440e-5
-0.871, -5.507e-5
-0.872, -5.570e-5
-0.873, -5.637e-5
-0.874, -5.701e-5
-0.875, -5.756e-5
-0.876, -5.814e-5
-0.877, -5.872e-5
-0.878, -5.932e-5
-0.879, -5.993e-5
-0.880, -6.045e-5
-0.881, -6.094e-5
-0.882, -6.148e-5
-0.883, -6.206e-5
-0.884, -6.261e-5
-0.885, -6.309e-5
-0.886, -6.352e-5
-0.887, -6.401e-5
-0.888, -6.449e-5
-0.889, -6.498e-5
-0.890, -6.538e-5
-0.891, -6.577e-5
-0.892, -6.620e-5
-0.893, -6.665e-5
-0.894, -6.705e-5
-0.895, -6.741e-5
-0.896, -6.772e-5
-0.897, -6.802e-5
-0.898, -6.842e-5
-0.899, -6.875e-5
-0.900, -6.906e-5
-0.901, -6.933e-5
-0.902, -6.960e-5
-0.903, -6.994e-5
-0.904, -7.021e-5
-0.905, -7.045e-5
-0.906, -7.064e-5
-0.907, -7.088e-5
-0.908, -7.115e-5
-0.909, -7.137e-5
-0.910, -7.155e-5
-0.911, -7.170e-5
-0.912, -7.185e-5
-0.913, -7.204e-5
-0.914, -7.225e-5
-0.915, -7.234e-5
-0.916, -7.243e-5
-0.917, -7.252e-5
-0.918, -7.267e-5
-0.919, -7.280e-5
-0.920, -7.286e-5
-0.921, -7.289e-5
-0.922, -7.301e-5
-0.923, -7.307e-5
-0.924, -7.313e-5
-0.925, -7.316e-5
-0.926, -7.316e-5
-0.927, -7.316e-5
-0.928, -7.322e-5
-0.929, -7.325e-5
-0.930, -7.322e-5
-0.931, -7.319e-5
-0.932, -7.316e-5
-0.933, -7.319e-5
-0.934, -7.316e-5
-0.935, -7.310e-5
-0.936, -7.304e-5
-0.937, -7.298e-5
-0.938, -7.298e-5
-0.939, -7.292e-5
-0.940, -7.283e-5
-0.941, -7.274e-5
-0.942, -7.264e-5
-0.943, -7.261e-5
-0.944, -7.252e-5
-0.945, -7.243e-5
-0.946, -7.231e-5
-0.947, -7.219e-5
-0.948, -7.210e-5
-0.949, -7.201e-5
-0.950, -7.188e-5
-0.951, -7.176e-5
-0.952, -7.164e-5
-0.953, -7.155e-5
-0.954, -7.143e-5
-0.955, -7.128e-5
-0.956, -7.115e-5
-0.957, -7.103e-5
-0.958, -7.088e-5
-0.959, -7.076e-5
-0.960, -7.061e-5
-0.961, -7.045e-5
-0.962, -7.030e-5
-0.963, -7.018e-5
-0.964, -7.006e-5
-0.965, -6.991e-5
-0.966, -6.972e-5
-0.967, -6.957e-5
-0.968, -6.942e-5
-0.969, -6.930e-5
-0.970, -6.912e-5
-0.971, -6.893e-5
-0.972, -6.881e-5
-0.973, -6.866e-5
-0.974, -6.851e-5
-0.975, -6.833e-5
-0.976, -6.817e-5
-0.977, -6.799e-5
-0.978, -6.784e-5
-0.979, -6.769e-5
-0.980, -6.750e-5
-0.981, -6.732e-5
-0.982, -6.717e-5
-0.983, -6.702e-5
-0.984, -6.684e-5
-0.985, -6.668e-5
-0.986, -6.650e-5
-0.987, -6.632e-5
-0.988, -6.617e-5
-0.989, -6.601e-5
-0.990, -6.583e-5
-0.991, -6.568e-5
-0.992, -6.550e-5
-0.993, -6.535e-5
-0.994, -6.516e-5
-0.995, -6.501e-5
-0.996, -6.483e-5
-0.997, -6.465e-5
-0.998, -6.449e-5
-0.999, -6.431e-5
-1.000, -6.416e-5
-1.001, -6.401e-5
-1.002, -6.382e-5
-1.003, -6.367e-5
-1.004, -6.352e-5
-1.005, -6.337e-5
-1.006, -6.319e-5
-1.007, -6.300e-5
-1.008, -6.285e-5
-1.009, -6.270e-5
-1.010, -6.255e-5
-1.011, -6.240e-5
-1.012, -6.221e-5
-1.013, -6.206e-5
-1.014, -6.191e-5
-1.015, -6.176e-5
-1.016, -6.160e-5
-1.017, -6.142e-5
-1.018, -6.130e-5
-1.019, -6.112e-5
-1.020, -6.100e-5
-1.021, -6.081e-5
-1.022, -6.066e-5
-1.023, -6.051e-5
-1.024, -6.039e-5
-1.025, -6.024e-5
-1.026, -6.008e-5
-1.027, -5.993e-5
-1.028, -5.978e-5
-1.029, -5.966e-5
-1.030, -5.951e-5
-1.031, -5.935e-5
-1.032, -5.920e-5
-1.033, -5.905e-5
-1.034, -5.893e-5
-1.035, -5.878e-5
-1.036, -5.865e-5
-1.037, -5.850e-5
-1.038, -5.835e-5
-1.039, -5.823e-5
-1.040, -5.808e-5
-1.041, -5.796e-5
-1.042, -5.780e-5
-1.043, -5.765e-5
-1.044, -5.753e-5
-1.045, -5.741e-5
-1.046, -5.726e-5
-1.047, -5.713e-5
-1.048, -5.701e-5
-1.049, -5.686e-5
-1.050, -5.674e-5
-1.051, -5.662e-5
-1.052, -5.646e-5
-1.053, -5.634e-5
-1.054, -5.622e-5
-1.055, -5.610e-5
-1.056, -5.598e-5
-1.057, -5.586e-5
-1.058, -5.573e-5
-1.059, -5.561e-5
-1.060, -5.549e-5
-1.061, -5.537e-5
-1.062, -5.525e-5
-1.063, -5.513e-5
-1.064, -5.501e-5
-1.065, -5.488e-5
-1.066, -5.479e-5
-1.067, -5.467e-5
-1.068, -5.455e-5
-1.069, -5.443e-5
-1.070, -5.434e-5
-1.071, -5.421e-5
-1.072, -5.409e-5
-1.073, -5.397e-5
-1.074, -5.388e-5
-1.075, -5.376e-5
-1.076, -5.367e-5
-1.077, -5.355e-5
-1.078, -5.342e-5
-1.079, -5.333e-5
-1.080, -5.324e-5
-1.081, -5.312e-5
-1.082, -5.303e-5
-1.083, -5.291e-5
-1.084, -5.282e-5
-1.085, -5.272e-5
-1.086, -5.260e-5
-1.087, -5.251e-5
-1.088, -5.242e-5
-1.089, -5.230e-5
-1.090, -5.221e-5
-1.091, -5.212e-5
-1.092, -5.199e-5
-1.093, -5.190e-5
-1.094, -5.181e-5
-1.095, -5.172e-5
-1.096, -5.163e-5
-1.097, -5.154e-5
-1.098, -5.142e-5
-1.099, -5.133e-5
-1.100, -5.123e-5
-1.101, -5.114e-5
-1.102, -5.105e-5
-1.103, -5.096e-5
-1.104, -5.087e-5
-1.105, -5.078e-5
-1.106, -5.072e-5
-1.107, -5.060e-5
-1.108, -5.050e-5
-1.109, -5.041e-5
-1.110, -5.035e-5
-1.111, -5.026e-5
-1.112, -5.017e-5
-1.113, -5.008e-5
-1.114, -4.999e-5
-1.115, -4.990e-5
-1.116, -4.983e-5
-1.117, -4.974e-5
-1.118, -4.965e-5
-1.119, -4.956e-5
-1.120, -4.950e-5
-1.121, -4.941e-5
-1.122, -4.932e-5
-1.123, -4.926e-5
-1.124, -4.917e-5
-1.125, -4.910e-5
-1.126, -4.901e-5
-1.127, -4.892e-5
-1.128, -4.886e-5
-1.129, -4.877e-5
-1.130, -4.871e-5
-1.131, -4.862e-5
-1.132, -4.856e-5
-1.133, -4.847e-5
-1.134, -4.841e-5
-1.135, -4.834e-5
-1.136, -4.825e-5
-1.137, -4.819e-5
-1.138, -4.810e-5
-1.139, -4.804e-5
-1.140, -4.798e-5
-1.141, -4.789e-5
-1.142, -4.783e-5
-1.143, -4.774e-5
-1.144, -4.768e-5
-1.145, -4.761e-5
-1.146, -4.755e-5
-1.147, -4.746e-5
-1.148, -4.740e-5
-1.149, -4.734e-5
-1.150, -4.728e-5
-1.151, -4.719e-5
-1.152, -4.713e-5
-1.153, -4.707e-5
-1.154, -4.701e-5
-1.155, -4.695e-5
-1.156, -4.688e-5
-1.157, -4.682e-5
-1.158, -4.673e-5
-1.159, -4.667e-5
-1.160, -4.661e-5
-1.161, -4.655e-5
-1.162, -4.649e-5
-1.163, -4.643e-5
-1.164, -4.637e-5
-1.165, -4.631e-5
-1.166, -4.625e-5
-1.167, -4.619e-5
-1.168, -4.612e-5
-1.169, -4.606e-5
-1.170, -4.600e-5
-1.171, -4.594e-5
-1.172, -4.588e-5
-1.173, -4.582e-5
-1.174, -4.576e-5
-1.175, -4.573e-5
-1.176, -4.567e-5
-1.177, -4.561e-5
-1.178, -4.555e-5
-1.179, -4.549e-5
-1.180, -4.542e-5
-1.181, -4.536e-5
-1.182, -4.530e-5
-1.183, -4.524e-5
-1.184, -4.521e-5
-1.185, -4.515e-5
-1.186, -4.509e-5
-1.187, -4.503e-5
-1.188, -4.497e-5
-1.189, -4.491e-5
-1.190, -4.488e-5
-1.191, -4.485e-5
-1.192, -4.476e-5
-1.193, -4.470e-5
-1.194, -4.466e-5
-1.195, -4.463e-5
-1.196, -4.457e-5
-1.197, -4.451e-5
-1.198, -4.445e-5
-1.199, -4.442e-5
-1.200, -4.433e-5
-1.199, -4.415e-5
-1.198, -4.400e-5
-1.197, -4.390e-5
-1.196, -4.378e-5
-1.195, -4.369e-5
-1.194, -4.363e-5
-1.193, -4.351e-5
-1.192, -4.342e-5
-1.191, -4.336e-5
-1.190, -4.327e-5
-1.189, -4.320e-5
-1.188, -4.311e-5
-1.187, -4.302e-5
-1.186, -4.296e-5
-1.185, -4.290e-5
-1.184, -4.281e-5
-1.183, -4.272e-5
-1.182, -4.266e-5
-1.181, -4.257e-5
-1.180, -4.251e-5
-1.179, -4.244e-5
-1.178, -4.238e-5
-1.177, -4.229e-5
-1.176, -4.223e-5
-1.175, -4.217e-5
-1.174, -4.211e-5
-1.173, -4.202e-5
-1.172, -4.196e-5
-1.171, -4.190e-5
-1.170, -4.184e-5
-1.169, -4.178e-5
-1.168, -4.168e-5
-1.167, -4.162e-5
-1.166, -4.156e-5
-1.165, -4.153e-5
-1.164, -4.144e-5
-1.163, -4.138e-5
-1.162, -4.132e-5
-1.161, -4.126e-5
-1.160, -4.120e-5
-1.159, -4.114e-5
-1.158, -4.108e-5
-1.157, -4.102e-5
-1.156, -4.095e-5
-1.155, -4.089e-5
-1.154, -4.083e-5
-1.153, -4.077e-5
-1.152, -4.071e-5
-1.151, -4.065e-5
-1.150, -4.062e-5
-1.149, -4.056e-5
-1.148, -4.050e-5
-1.147, -4.044e-5
-1.146, -4.038e-5
-1.145, -4.032e-5
-1.144, -4.025e-5
-1.143, -4.022e-5
-1.142, -4.013e-5
-1.141, -4.010e-5
-1.140, -4.004e-5
-1.139, -3.998e-5
-1.138, -3.992e-5
-1.137, -3.986e-5
-1.136, -3.983e-5
-1.135, -3.977e-5
-1.134, -3.971e-5
-1.133, -3.968e-5
-1.132, -3.959e-5
-1.131, -3.956e-5
-1.130, -3.949e-5
-1.129, -3.946e-5
-1.128, -3.937e-5
-1.127, -3.934e-5
-1.126, -3.928e-5
-1.125, -3.925e-5
-1.124, -3.919e-5
-1.123, -3.913e-5
-1.122, -3.907e-5
-1.121, -3.904e-5
-1.120, -3.898e-5
-1.119, -3.892e-5
-1.118, -3.889e-5
-1.117, -3.883e-5
-1.116, -3.876e-5
-1.115, -3.873e-5
-1.114, -3.867e-5
-1.113, -3.861e-5
-1.112, -3.855e-5
-1.111, -3.852e-5
-1.110, -3.846e-5
-1.109, -3.843e-5
-1.108, -3.837e-5
-1.107, -3.831e-5
-1.106, -3.828e-5
-1.105, -3.822e-5
-1.104, -3.819e-5
-1.103, -3.813e-5
-1.102, -3.807e-5
-1.101, -3.800e-5
-1.100, -3.797e-5
-1.099, -3.791e-5
-1.098, -3.788e-5
-1.097, -3.782e-5
-1.096, -3.776e-5
-1.095, -3.773e-5
-1.094, -3.767e-5
-1.093, -3.761e-5
-1.092, -3.758e-5
-1.091, -3.752e-5
-1.090, -3.749e-5
-1.089, -3.743e-5
-1.088, -3.737e-5
-1.087, -3.734e-5
-1.086, -3.727e-5
-1.085, -3.724e-5
-1.084, -3.718e-5
-1.083, -3.712e-5
-1.082, -3.709e-5
-1.081, -3.703e-5
-1.080, -3.700e-5
-1.079, -3.694e-5
-1.078, -3.688e-5
-1.077, -3.685e-5
-1.076, -3.679e-5
-1.075, -3.676e-5
-1.074, -3.670e-5
-1.073, -3.664e-5
-1.072, -3.661e-5
-1.071, -3.654e-5
-1.070, -3.651e-5
-1.069, -3.645e-5
-1.068, -3.639e-5
-1.067, -3.636e-5
-1.066, -3.630e-5
-1.065, -3.627e-5
-1.064, -3.621e-5
-1.063, -3.615e-5
-1.062, -3.609e-5
-1.061, -3.606e-5
-1.060, -3.600e-5
-1.059, -3.597e-5
-1.058, -3.591e-5
-1.057, -3.584e-5
-1.056, -3.581e-5
-1.055, -3.575e-5
-1.054, -3.569e-5
-1.053, -3.566e-5
-1.052, -3.560e-5
-1.051, -3.554e-5
-1.050, -3.551e-5
-1.049, -3.545e-5
-1.048, -3.539e-5
-1.047, -3.533e-5
-1.046, -3.530e-5
-1.045, -3.524e-5
-1.044, -3.518e-5
-1.043, -3.515e-5
-1.042, -3.508e-5
-1.041, -3.502e-5
-1.040, -3.496e-5
-1.039, -3.493e-5
-1.038, -3.487e-5
-1.037, -3.481e-5
-1.036, -3.475e-5
-1.035, -3.469e-5
-1.034, -3.466e-5
-1.033, -3.457e-5
-1.032, -3.454e-5
-1.031, -3.448e-5
-1.030, -3.442e-5
-1.029, -3.435e-5
-1.028, -3.429e-5
-1.027, -3.423e-5
-1.026, -3.417e-5
-1.025, -3.411e-5
-1.024, -3.405e-5
-1.023, -3.399e-5
-1.022, -3.393e-5
-1.021, -3.387e-5
-1.020, -3.381e-5
-1.019, -3.375e-5
-1.018, -3.369e-5
-1.017, -3.362e-5
-1.016, -3.353e-5
-1.015, -3.347e-5
-1.014, -3.341e-5
-1.013, -3.335e-5
-1.012, -3.326e-5
-1.011, -3.320e-5
-1.010, -3.314e-5
-1.009, -3.308e-5
-1.008, -3.299e-5
-1.007, -3.293e-5
-1.006, -3.286e-5
-1.005, -3.277e-5
-1.004, -3.271e-5
-1.003, -3.262e-5
-1.002, -3.256e-5
-1.001, -3.250e-5
-1.000, -3.241e-5
-0.999, -3.232e-5
-0.998, -3.226e-5
-0.997, -3.216e-5
-0.996, -3.207e-5
-0.995, -3.198e-5
-0.994, -3.189e-5
-0.993, -3.180e-5
-0.992, -3.174e-5
-0.991, -3.165e-5
-0.990, -3.156e-5
-0.989, -3.147e-5
-0.988, -3.134e-5
-0.987, -3.125e-5
-0.986, -3.116e-5
-0.985, -3.107e-5
-0.984, -3.095e-5
-0.983, -3.086e-5
-0.982, -3.074e-5
-0.981, -3.064e-5
-0.980, -3.052e-5
-0.979, -3.043e-5
-0.978, -3.031e-5
-0.977, -3.019e-5
-0.976, -3.007e-5
-0.975, -2.994e-5
-0.974, -2.982e-5
-0.973, -2.970e-5
-0.972, -2.958e-5
-0.971, -2.943e-5
-0.970, -2.931e-5
-0.969, -2.918e-5
-0.968, -2.903e-5
-0.967, -2.891e-5
-0.966, -2.876e-5
-0.965, -2.864e-5
-0.964, -2.845e-5
-0.963, -2.830e-5
-0.962, -2.815e-5
-0.961, -2.800e-5
-0.960, -2.785e-5
-0.959, -2.766e-5
-0.958, -2.751e-5
-0.957, -2.733e-5
-0.956, -2.715e-5
-0.955, -2.696e-5
-0.954, -2.678e-5
-0.953, -2.660e-5
-0.952, -2.642e-5
-0.951, -2.620e-5
-0.950, -2.602e-5
-0.949, -2.581e-5
-0.948, -2.557e-5
-0.947, -2.538e-5
-0.946, -2.520e-5
-0.945, -2.496e-5
-0.944, -2.471e-5
-0.943, -2.450e-5
-0.942, -2.426e-5
-0.941, -2.401e-5
-0.940, -2.377e-5
-0.939, -2.350e-5
-0.938, -2.322e-5
-0.937, -2.298e-5
-0.936, -2.274e-5
-0.935, -2.243e-5
-0.934, -2.213e-5
-0.933, -2.185e-5
-0.932, -2.155e-5
-0.931, -2.128e-5
-0.930, -2.097e-5
-0.929, -2.064e-5
-0.928, -2.030e-5
-0.927, -2.000e-5
-0.926, -1.967e-5
-0.925, -1.936e-5
-0.924, -1.897e-5
-0.923, -1.860e-5
-0.922, -1.827e-5
-0.921, -1.790e-5
-0.920, -1.751e-5
-0.919, -1.711e-5
-0.918, -1.672e-5
-0.917, -1.632e-5
-0.916, -1.595e-5
-0.915, -1.553e-5
-0.914, -1.507e-5
-0.913, -1.465e-5
-0.912, -1.422e-5
-0.911, -1.380e-5
-0.910, -1.334e-5
-0.909, -1.285e-5
-0.908, -1.234e-5
-0.907, -1.191e-5
-0.906, -1.142e-5
-0.905, -1.094e-5
-0.904, -1.039e-5
-0.903, -9.842e-6
-0.902, -9.386e-6
-0.901, -8.869e-6
-0.900, -8.321e-6
-0.899, -7.743e-6
-0.898, -7.165e-6
-0.897, -6.618e-6
-0.896, -6.101e-6
-0.895, -5.554e-6
-0.894, -4.915e-6
-0.893, -4.276e-6
-0.892, -3.698e-6
-0.891, -3.090e-6
-0.890, -2.482e-6
-0.889, -1.813e-6
-0.888, -1.144e-6
-0.887, -5.354e-7
-0.886, 1.032e-7
-0.885, 7.723e-7
-0.884, 1.502e-6
-0.883, 2.202e-6
-0.882, 2.840e-6
-0.881, 3.509e-6
-0.880, 4.239e-6
-0.879, 4.969e-6
-0.878, 5.730e-6
-0.877, 6.399e-6
-0.876, 7.068e-6
-0.875, 7.859e-6
-0.874, 8.619e-6
-0.873, 9.410e-6
-0.872, 1.008e-5
-0.871, 1.084e-5
-0.870, 1.163e-5
-0.869, 1.245e-5
-0.868, 1.324e-5
-0.867, 1.394e-5
-0.866, 1.467e-5
-0.865, 1.546e-5
-0.864, 1.628e-5
-0.863, 1.707e-5
-0.862, 1.780e-5
-0.861, 1.856e-5
-0.860, 1.932e-5
-0.859, 2.018e-5
-0.858, 2.097e-5
-0.857, 2.170e-5
-0.856, 2.246e-5
-0.855, 2.325e-5
-0.854, 2.407e-5
-0.853, 2.483e-5
-0.852, 2.556e-5
-0.851, 2.629e-5
-0.850, 2.705e-5
-0.849, 2.787e-5
-0.848, 2.866e-5
-0.847, 2.933e-5
-0.846, 3.003e-5
-0.845, 3.076e-5
-0.844, 3.149e-5
-0.843, 3.222e-5
-0.842, 3.289e-5
-0.841, 3.353e-5
-0.840, 3.426e-5
-0.839, 3.499e-5
-0.838, 3.566e-5
-0.837, 3.626e-5
-0.836, 3.690e-5
-0.835, 3.754e-5
-0.834, 3.821e-5
-0.833, 3.885e-5
-0.832, 3.940e-5
-0.831, 3.994e-5
-0.830, 4.055e-5
-0.829, 4.113e-5
-0.828, 4.168e-5
-0.827, 4.219e-5
-0.826, 4.265e-5
-0.825, 4.314e-5
-0.824, 4.368e-5
-0.823, 4.420e-5
-0.822, 4.457e-5
-0.821, 4.499e-5
-0.820, 4.542e-5
-0.819, 4.575e-5
-0.818, 4.609e-5
-0.817, 4.645e-5
-0.816, 4.676e-5
-0.815, 4.709e-5
-0.814, 4.749e-5
-0.813, 4.776e-5
-0.812, 4.803e-5
-0.811, 4.825e-5
-0.810, 4.849e-5
-0.809, 4.876e-5
-0.808, 4.901e-5
-0.807, 4.913e-5
-0.806, 4.928e-5
-0.805, 4.946e-5
-0.804, 4.962e-5
-0.803, 4.977e-5
-0.802, 4.980e-5
-0.801, 4.986e-5
-0.800, 4.995e-5
-0.799, 5.001e-5
-0.798, 5.010e-5
-0.797, 5.004e-5
-0.796, 5.001e-5
-0.795, 5.001e-5
-0.794, 5.001e-5
-0.793, 4.995e-5
-0.792, 4.986e-5
-0.791, 4.977e-5
-0.790, 4.971e-5
-0.789, 4.965e-5
-0.788, 4.955e-5
-0.787, 4.940e-5
-0.786, 4.922e-5
-0.785, 4.910e-5
-0.784, 4.898e-5
-0.783, 4.879e-5
-0.782, 4.861e-5
-0.781, 4.840e-5
-0.780, 4.819e-5
-0.779, 4.803e-5
-0.778, 4.782e-5
-0.777, 4.758e-5
-0.776, 4.730e-5
-0.775, 4.709e-5
-0.774, 4.688e-5
-0.773, 4.660e-5
-0.772, 4.636e-5
-0.771, 4.606e-5
-0.770, 4.581e-5
-0.769, 4.557e-5
-0.768, 4.530e-5
-0.767, 4.502e-5
-0.766, 4.472e-5
-0.765, 4.441e-5
-0.764, 4.414e-5
-0.763, 4.387e-5
-0.762, 4.356e-5
-0.761, 4.323e-5
-0.760, 4.296e-5
-0.759, 4.268e-5
-0.758, 4.238e-5
-0.757, 4.207e-5
-0.756, 4.174e-5
-0.755, 4.143e-5
-0.754, 4.116e-5
-0.753, 4.089e-5
-0.752, 4.058e-5
-0.751, 4.025e-5
-0.750, 3.994e-5
-0.749, 3.967e-5
-0.748, 3.937e-5
-0.747, 3.906e-5
-0.746, 3.876e-5
-0.745, 3.845e-5
-0.744, 3.818e-5
-0.743, 3.791e-5
-0.742, 3.760e-5
-0.741, 3.730e-5
-0.740, 3.702e-5
-0.739, 3.675e-5
-0.738, 3.648e-5
-0.737, 3.620e-5
-0.736, 3.590e-5
-0.735, 3.563e-5
-0.734, 3.538e-5
-0.733, 3.511e-5
-0.732, 3.483e-5
-0.731, 3.456e-5
-0.730, 3.432e-5
-0.729, 3.404e-5
-0.728, 3.380e-5
-0.727, 3.356e-5
-0.726, 3.328e-5
-0.725, 3.304e-5
-0.724, 3.280e-5
-0.723, 3.255e-5
-0.722, 3.231e-5
-0.721, 3.207e-5
-0.720, 3.182e-5
-0.719, 3.161e-5
-0.718, 3.140e-5
-0.717, 3.115e-5
-0.716, 3.094e-5
-0.715, 3.070e-5
-0.714, 3.049e-5
-0.713, 3.027e-5
-0.712, 3.006e-5
-0.711, 2.985e-5
-0.710, 2.963e-5
-0.709, 2.942e-5
-0.708, 2.921e-5
-0.707, 2.903e-5
-0.706, 2.881e-5
-0.705, 2.863e-5
-0.704, 2.842e-5
-0.703, 2.824e-5
-0.702, 2.805e-5
-0.701, 2.784e-5
-0.700, 2.766e-5
-0.699, 2.747e-5
-0.698, 2.729e-5
-0.697, 2.711e-5
-0.696, 2.693e-5
-0.695, 2.674e-5
-0.694, 2.659e-5
-0.693, 2.641e-5
-0.692, 2.626e-5
-0.691, 2.608e-5
-0.690, 2.589e-5
-0.689, 2.574e-5
-0.688, 2.559e-5
-0.687, 2.544e-5
-0.686, 2.529e-5
-0.685, 2.510e-5
-0.684, 2.495e-5
-0.683, 2.480e-5
-0.682, 2.465e-5
-0.681, 2.449e-5
-0.680, 2.434e-5
-0.679, 2.419e-5
-0.678, 2.407e-5
-0.677, 2.392e-5
-0.676, 2.379e-5
-0.675, 2.364e-5
-0.674, 2.349e-5
-0.673, 2.337e-5
-0.672, 2.322e-5
-0.671, 2.310e-5
-0.670, 2.294e-5
-0.669, 2.282e-5
-0.668, 2.270e-5
-0.667, 2.258e-5
-0.666, 2.243e-5
-0.665, 2.230e-5
-0.664, 2.218e-5
-0.663, 2.206e-5
-0.662, 2.194e-5
-0.661, 2.182e-5
-0.660, 2.170e-5
-0.659, 2.157e-5
-0.658, 2.145e-5
-0.657, 2.136e-5
-0.656, 2.124e-5
-0.655, 2.112e-5
-0.654, 2.100e-5
-0.653, 2.091e-5
-0.652, 2.078e-5
-0.651, 2.069e-5
-0.650, 2.057e-5
-0.649, 2.045e-5
-0.648, 2.036e-5
-0.647, 2.027e-5
-0.646, 2.015e-5
-0.645, 2.005e-5
-0.644, 1.993e-5
-0.643, 1.984e-5
-0.642, 1.975e-5
-0.641, 1.966e-5
-0.640, 1.954e-5
-0.639, 1.945e-5
-0.638, 1.935e-5
-0.637, 1.926e-5
-0.636, 1.917e-5
-0.635, 1.905e-5
-0.634, 1.896e-5
-0.633, 1.887e-5
-0.632, 1.881e-5
-0.631, 1.872e-5
-0.630, 1.862e-5
-0.629, 1.853e-5
-0.628, 1.844e-5
-0.627, 1.835e-5
-0.626, 1.829e-5
-0.625, 1.817e-5
-0.624, 1.808e-5
-0.623, 1.802e-5
-0.622, 1.793e-5
-0.621, 1.786e-5
-0.620, 1.777e-5
-0.619, 1.768e-5
-0.618, 1.762e-5
-0.617, 1.753e-5
-0.616, 1.747e-5
-0.615, 1.738e-5
-0.614, 1.729e-5
-0.613, 1.723e-5
-0.612, 1.716e-5
-0.611, 1.707e-5
-0.610, 1.701e-5
-0.609, 1.692e-5
-0.608, 1.686e-5
-0.607, 1.680e-5
-0.606, 1.671e-5
-0.605, 1.665e-5
-0.604, 1.656e-5
-0.603, 1.650e-5
-0.602, 1.643e-5
-0.601, 1.637e-5
-0.600, 1.628e-5
-0.599, 1.622e-5
-0.598, 1.616e-5
-0.597, 1.610e-5
-0.596, 1.604e-5
-0.595, 1.598e-5
-0.594, 1.592e-5
-0.593, 1.586e-5
-0.592, 1.580e-5
-0.591, 1.574e-5
-0.590, 1.564e-5
-0.589, 1.558e-5
-0.588, 1.552e-5
-0.587, 1.549e-5
-0.586, 1.543e-5
-0.585, 1.537e-5
-0.584, 1.531e-5
-0.583, 1.525e-5
-0.582, 1.519e-5
-0.581, 1.513e-5
-0.580, 1.510e-5
-0.579, 1.504e-5
-0.578, 1.498e-5
-0.577, 1.494e-5
-0.576, 1.488e-5
-0.575, 1.482e-5
-0.574, 1.476e-5
-0.573, 1.473e-5
-0.572, 1.467e-5
-0.571, 1.464e-5
-0.570, 1.458e-5
-0.569, 1.452e-5
-0.568, 1.446e-5
-0.567, 1.443e-5
-0.566, 1.440e-5
-0.565, 1.434e-5
-0.564, 1.431e-5
-0.563, 1.425e-5
-0.562, 1.421e-5
-0.561, 1.418e-5
-0.560, 1.412e-5
-0.559, 1.409e-5
-0.558, 1.406e-5
-0.557, 1.403e-5
-0.556, 1.397e-5
-0.555, 1.394e-5
-0.554, 1.391e-5
-0.553, 1.388e-5
-0.552, 1.385e-5
-0.551, 1.382e-5
-0.550, 1.376e-5
-0.549, 1.373e-5
-0.548, 1.373e-5
-0.547, 1.370e-5
-0.546, 1.367e-5
-0.545, 1.364e-5
-0.544, 1.361e-5
-0.543, 1.358e-5
-0.542, 1.358e-5
-0.541, 1.355e-5
-0.540, 1.352e-5
-0.539, 1.348e-5
-0.538, 1.348e-5
-0.537, 1.345e-5
-0.536, 1.345e-5
-0.535, 1.345e-5
-0.534, 1.342e-5
-0.533, 1.342e-5
-0.532, 1.342e-5
-0.531, 1.342e-5
-0.530, 1.342e-5
-0.529, 1.342e-5
-0.528, 1.342e-5
-0.527, 1.345e-5
-0.526, 1.345e-5
-0.525, 1.348e-5
-0.524, 1.348e-5
-0.523, 1.352e-5
-0.522, 1.358e-5
-0.521, 1.361e-5
-0.520, 1.364e-5
-0.519, 1.367e-5
-0.518, 1.373e-5
-0.517, 1.379e-5
-0.516, 1.382e-5
-0.515, 1.391e-5
-0.514, 1.397e-5
-0.513, 1.406e-5
-0.512, 1.415e-5
-0.511, 1.425e-5
-0.510, 1.434e-5
-0.509, 1.443e-5
-0.508, 1.458e-5
-0.507, 1.467e-5
-0.506, 1.479e-5
-0.505, 1.491e-5
-0.504, 1.507e-5
-0.503, 1.522e-5
-0.502, 1.537e-5
-0.501, 1.552e-5
-0.500, 1.552e-5
-0.501, 1.491e-5
-0.502, 1.440e-5
-0.503, 1.397e-5
-0.504, 1.361e-5
-0.505, 1.327e-5
-0.506, 1.297e-5
-0.507, 1.272e-5
-0.508, 1.245e-5
-0.509, 1.221e-5
-0.510, 1.199e-5
-0.511, 1.178e-5
-0.512, 1.160e-5
-0.513, 1.142e-5
-0.514, 1.126e-5
-0.515, 1.108e-5
-0.516, 1.096e-5
-0.517, 1.081e-5
-0.518, 1.069e-5
-0.519, 1.057e-5
-0.520, 1.044e-5
-0.521, 1.035e-5
-0.522, 1.026e-5
-0.523, 1.017e-5
-0.524, 1.008e-5
-0.525, 9.987e-6
-0.526, 9.927e-6
-0.527, 9.835e-6
-0.528, 9.775e-6
-0.529, 9.714e-6
-0.530, 9.653e-6
-0.531, 9.592e-6
-0.532, 9.531e-6
-0.533, 9.501e-6
-0.534, 9.440e-6
-0.535, 9.379e-6
-0.536, 9.349e-6
-0.537, 9.288e-6
-0.538, 9.258e-6
-0.539, 9.197e-6
-0.540, 9.166e-6
-0.541, 9.136e-6
-0.542, 9.075e-6
-0.543, 9.045e-6
-0.544, 9.014e-6
-0.545, 8.984e-6
-0.546, 8.923e-6
-0.547, 8.893e-6
-0.548, 8.862e-6
-0.549, 8.832e-6
-0.550, 8.801e-6
-0.551, 8.771e-6
-0.552, 8.741e-6
-0.553, 8.710e-6
-0.554, 8.680e-6
-0.555, 8.649e-6
-0.556, 8.619e-6
-0.557, 8.588e-6
-0.558, 8.558e-6
-0.559, 8.528e-6
-0.560, 8.497e-6
-0.561, 8.467e-6
-0.562, 8.436e-6
-0.563, 8.406e-6
-0.564, 8.406e-6
-0.565, 8.345e-6
-0.566, 8.315e-6
-0.567, 8.284e-6
-0.568, 8.284e-6
-0.569, 8.254e-6
-0.570, 8.223e-6
-0.571, 8.193e-6
-0.572, 8.163e-6
-0.573, 8.132e-6
-0.574, 8.132e-6
-0.575, 8.102e-6
-0.576, 8.071e-6
-0.577, 8.041e-6
-0.578, 8.011e-6
-0.579, 7.980e-6
-0.580, 7.950e-6
-0.581, 7.919e-6
-0.582, 7.919e-6
-0.583, 7.889e-6
-0.584, 7.859e-6
-0.585, 7.828e-6
-0.586, 7.798e-6
-0.587, 7.798e-6
-0.588, 7.767e-6
-0.589, 7.737e-6
-0.590, 7.706e-6
-0.591, 7.676e-6
-0.592, 7.676e-6
-0.593, 7.646e-6
-0.594, 7.615e-6
-0.595, 7.585e-6
-0.596, 7.554e-6
-0.597, 7.554e-6
-0.598, 7.524e-6
-0.599, 7.494e-6
-0.600, 7.463e-6
-0.601, 7.433e-6
-0.602, 7.433e-6
-0.603, 7.402e-6
-0.604, 7.372e-6
-0.605, 7.372e-6
-0.606, 7.342e-6
-0.607, 7.311e-6
-0.608, 7.281e-6
-0.609, 7.281e-6
-0.610, 7.250e-6
-0.611, 7.220e-6
-0.612, 7.189e-6
-0.613, 7.159e-6
-0.614, 7.159e-6
-0.615, 7.129e-6
-0.616, 7.098e-6
-0.617, 7.068e-6
-0.618, 7.068e-6
-0.619, 7.037e-6
-0.620, 7.007e-6
-0.621, 6.977e-6
-0.622, 6.977e-6
-0.623, 6.946e-6
-0.624, 6.916e-6
-0.625, 6.885e-6
-0.626, 6.855e-6
-0.627, 6.855e-6
-0.628, 6.824e-6
-0.629, 6.824e-6
-0.630, 6.794e-6
-0.631, 6.764e-6
-0.632, 6.733e-6
-0.633, 6.703e-6
-0.634, 6.703e-6
-0.635, 6.672e-6
-0.636, 6.642e-6
-0.637, 6.612e-6
-0.638, 6.612e-6
-0.639, 6.581e-6
-0.640, 6.551e-6
-0.641, 6.520e-6
-0.642, 6.520e-6
-0.643, 6.490e-6
-0.644, 6.460e-6
-0.645, 6.429e-6
-0.646, 6.399e-6
-0.647, 6.399e-6
-0.648, 6.368e-6
-0.649, 6.338e-6
-0.650, 6.307e-6
-0.651, 6.277e-6
-0.652, 6.277e-6
-0.653, 6.247e-6
-0.654, 6.216e-6
-0.655, 6.216e-6
-0.656, 6.186e-6
-0.657, 6.155e-6
-0.658, 6.125e-6
-0.659, 6.095e-6
-0.660, 6.064e-6
-0.661, 6.034e-6
-0.662, 6.034e-6
-0.663, 6.003e-6
-0.664, 5.973e-6
-0.665, 5.943e-6
-0.666, 5.912e-6
-0.667, 5.912e-6
-0.668, 5.882e-6
-0.669, 5.851e-6
-0.670, 5.821e-6
-0.671, 5.790e-6
-0.672, 5.760e-6
-0.673, 5.760e-6
-0.674, 5.730e-6
-0.675, 5.699e-6
-0.676, 5.669e-6
-0.677, 5.638e-6
-0.678, 5.608e-6
-0.679, 5.578e-6
-0.680, 5.547e-6
-0.681, 5.517e-6
-0.682, 5.486e-6
-0.683, 5.456e-6
-0.684, 5.456e-6
-0.685, 5.395e-6
-0.686, 5.365e-6
-0.687, 5.334e-6
-0.688, 5.334e-6
-0.689, 5.304e-6
-0.690, 5.243e-6
-0.691, 5.213e-6
-0.692, 5.182e-6
-0.693, 5.152e-6
-0.694, 5.121e-6
-0.695, 5.091e-6
-0.696, 5.061e-6
-0.697, 5.000e-6
-0.698, 5.000e-6
-0.699, 4.939e-6
-0.700, 4.908e-6
-0.701, 4.878e-6
-0.702, 4.848e-6
-0.703, 4.787e-6
-0.704, 4.756e-6
-0.705, 4.726e-6
-0.706, 4.696e-6
-0.707, 4.635e-6
-0.708, 4.604e-6
-0.709, 4.574e-6
-0.710, 4.513e-6
-0.711, 4.452e-6
-0.712, 4.422e-6
-0.713, 4.391e-6
-0.714, 4.331e-6
-0.715, 4.270e-6
-0.716, 4.239e-6
-0.717, 4.179e-6
-0.718, 4.148e-6
-0.719, 4.087e-6
-0.720, 4.027e-6
-0.721, 3.996e-6
-0.722, 3.905e-6
-0.723, 3.874e-6
-0.724, 3.814e-6
-0.725, 3.753e-6
-0.726, 3.692e-6
-0.727, 3.631e-6
-0.728, 3.601e-6
-0.729, 3.509e-6
-0.730, 3.449e-6
-0.731, 3.388e-6
-0.732, 3.327e-6
-0.733, 3.266e-6
-0.734, 3.205e-6
-0.735, 3.114e-6
-0.736, 3.023e-6
-0.737, 2.962e-6
-0.738, 2.901e-6
-0.739, 2.810e-6
-0.740, 2.719e-6
-0.741, 2.628e-6
-0.742, 2.567e-6
-0.743, 2.475e-6
-0.744, 2.384e-6
-0.745, 2.293e-6
-0.746, 2.202e-6
-0.747, 2.110e-6
-0.748, 2.019e-6
-0.749, 1.898e-6
-0.750, 1.776e-6
-0.751, 1.685e-6
-0.752, 1.593e-6
-0.753, 1.472e-6
-0.754, 1.350e-6
-0.755, 1.229e-6
-0.756, 1.107e-6
-0.757, 9.852e-7
-0.758, 8.636e-7
-0.759, 7.115e-7
-0.760, 5.594e-7
-0.761, 4.378e-7
-0.762, 3.161e-7
-0.763, 1.641e-7
-0.764, 1.200e-8
-0.765, -1.705e-7
-0.766, -3.225e-7
-0.767, -4.746e-7
-0.768, -6.571e-7
-0.769, -8.396e-7
-0.770, -1.022e-6
-0.771, -1.174e-6
-0.772, -1.357e-6
-0.773, -1.569e-6
-0.774, -1.782e-6
-0.775, -1.965e-6
-0.776, -2.178e-6
-0.777, -2.391e-6
-0.778, -2.604e-6
-0.779, -2.847e-6
-0.780, -3.060e-6
-0.781, -3.303e-6
-0.782, -3.516e-6
-0.783, -3.790e-6
-0.784, -4.063e-6
-0.785, -4.307e-6
-0.786, -4.580e-6
-0.787, -4.824e-6
-0.788, -5.128e-6
-0.789, -5.432e-6
-0.790, -5.736e-6
-0.791, -6.010e-6
-0.792, -6.283e-6
-0.793, -6.618e-6
-0.794, -6.922e-6
-0.795, -7.257e-6
-0.796, -7.591e-6
-0.797, -7.895e-6
-0.798, -8.260e-6
-0.799, -8.656e-6
-0.800, -9.021e-6
-0.801, -9.355e-6
-0.802, -9.751e-6
-0.803, -1.012e-5
-0.804, -1.054e-5
-0.805, -1.097e-5
-0.806, -1.136e-5
-0.807, -1.176e-5
-0.808, -1.221e-5
-0.809, -1.264e-5
-0.810, -1.310e-5
-0.811, -1.352e-5
-0.812, -1.395e-5
-0.813, -1.443e-5
-0.814, -1.492e-5
-0.815, -1.544e-5
-0.816, -1.589e-5
-0.817, -1.635e-5
-0.818, -1.687e-5
-0.819, -1.738e-5
-0.820, -1.781e-5
-0.821, -1.833e-5
-0.822, -1.881e-5
-0.823, -1.936e-5
-0.824, -1.994e-5
-0.825, -2.052e-5
-0.826, -2.100e-5
-0.827, -2.155e-5
-0.828, -2.213e-5
-0.829, -2.274e-5
-0.830, -2.331e-5
-0.831, -2.386e-5
-0.832, -2.441e-5
-0.833, -2.502e-5
-0.834, -2.566e-5
-0.835, -2.626e-5
-0.836, -2.684e-5
-0.837, -2.742e-5
-0.838, -2.803e-5
-0.839, -2.867e-5
-0.840, -2.931e-5
-0.841, -2.988e-5
-0.842, -3.049e-5
-0.843, -3.113e-5
-0.844, -3.180e-5
-0.845, -3.238e-5
-0.846, -3.296e-5
-0.847, -3.356e-5
-0.848, -3.423e-5
-0.849, -3.487e-5
-0.850, -3.554e-5
-0.851, -3.612e-5
-0.852, -3.670e-5
-0.853, -3.737e-5
-0.854, -3.800e-5
-0.855, -3.864e-5
-0.856, -3.925e-5
-0.857, -3.983e-5
-0.858, -4.047e-5
-0.859, -4.111e-5
-0.860, -4.174e-5
-0.861, -4.229e-5
-0.862, -4.284e-5
-0.863, -4.348e-5
-0.864, -4.409e-5
-0.865, -4.466e-5
-0.866, -4.524e-5
-0.867, -4.576e-5
-0.868, -4.634e-5
-0.869, -4.695e-5
-0.870, -4.749e-5
-0.871, -4.804e-5
-0.872, -4.856e-5
-0.873, -4.907e-5
-0.874, -4.965e-5
-0.875, -5.017e-5
-0.876, -5.063e-5
-0.877, -5.108e-5
-0.878, -5.157e-5
-0.879, -5.209e-5
-0.880, -5.257e-5
-0.881, -5.297e-5
-0.882, -5.339e-5
-0.883, -5.385e-5
-0.884, -5.434e-5
-0.885, -5.476e-5
-0.886, -5.513e-5
-0.887, -5.549e-5
-0.888, -5.589e-5
-0.889, -5.628e-5
-0.890, -5.665e-5
-0.891, -5.695e-5
-0.892, -5.729e-5
-0.893, -5.762e-5
-0.894, -5.799e-5
-0.895, -5.829e-5
-0.896, -5.853e-5
-0.897, -5.875e-5
-0.898, -5.908e-5
-0.899, -5.938e-5
-0.900, -5.963e-5
-0.901, -5.984e-5
-0.902, -6.005e-5
-0.903, -6.027e-5
-0.904, -6.054e-5
-0.905, -6.072e-5
-0.906, -6.091e-5
-0.907, -6.106e-5
-0.908, -6.124e-5
-0.909, -6.145e-5
-0.910, -6.160e-5
-0.911, -6.173e-5
-0.912, -6.185e-5
-0.913, -6.197e-5
-0.914, -6.212e-5
-0.915, -6.224e-5
-0.916, -6.230e-5
-0.917, -6.240e-5
-0.918, -6.249e-5
-0.919, -6.258e-5
-0.920, -6.264e-5
-0.921, -6.270e-5
-0.922, -6.276e-5
-0.923, -6.279e-5
-0.924, -6.288e-5
-0.925, -6.291e-5
-0.926, -6.288e-5
-0.927, -6.288e-5
-0.928, -6.291e-5
-0.929, -6.294e-5
-0.930, -6.294e-5
-0.931, -6.294e-5
-0.932, -6.288e-5
-0.933, -6.288e-5
-0.934, -6.288e-5
-0.935, -6.288e-5
-0.936, -6.282e-5
-0.937, -6.276e-5
-0.938, -6.270e-5
-0.939, -6.267e-5
-0.940, -6.264e-5
-0.941, -6.258e-5
-0.942, -6.249e-5
-0.943, -6.246e-5
-0.944, -6.240e-5
-0.945, -6.233e-5
-0.946, -6.224e-5
-0.947, -6.212e-5
-0.948, -6.203e-5
-0.949, -6.197e-5
-0.950, -6.191e-5
-0.951, -6.179e-5
-0.952, -6.170e-5
-0.953, -6.160e-5
-0.954, -6.151e-5
-0.955, -6.145e-5
-0.956, -6.133e-5
-0.957, -6.121e-5
-0.958, -6.109e-5
-0.959, -6.100e-5
-0.960, -6.091e-5
-0.961, -6.078e-5
-0.962, -6.066e-5
-0.963, -6.054e-5
-0.964, -6.045e-5
-0.965, -6.036e-5
-0.966, -6.021e-5
-0.967, -6.008e-5
-0.968, -5.996e-5
-0.969, -5.984e-5
-0.970, -5.972e-5
-0.971, -5.960e-5
-0.972, -5.948e-5
-0.973, -5.935e-5
-0.974, -5.923e-5
-0.975, -5.911e-5
-0.976, -5.899e-5
-0.977, -5.884e-5
-0.978, -5.872e-5
-0.979, -5.859e-5
-0.980, -5.844e-5
-0.981, -5.832e-5
-0.982, -5.817e-5
-0.983, -5.805e-5
-0.984, -5.792e-5
-0.985, -5.780e-5
-0.986, -5.765e-5
-0.987, -5.753e-5
-0.988, -5.738e-5
-0.989, -5.726e-5
-0.990, -5.713e-5
-0.991, -5.701e-5
-0.992, -5.686e-5
-0.993, -5.671e-5
-0.994, -5.659e-5
-0.995, -5.646e-5
-0.996, -5.634e-5
-0.997, -5.622e-5
-0.998, -5.607e-5
-0.999, -5.592e-5
-1.000, -5.583e-5
-1.001, -5.567e-5
-1.002, -5.552e-5
-1.003, -5.540e-5
-1.004, -5.528e-5
-1.005, -5.516e-5
-1.006, -5.504e-5
-1.007, -5.488e-5
-1.008, -5.476e-5
-1.009, -5.464e-5
-1.010, -5.452e-5
-1.011, -5.440e-5
-1.012, -5.428e-5
-1.013, -5.412e-5
-1.014, -5.400e-5
-1.015, -5.388e-5
-1.016, -5.376e-5
-1.017, -5.364e-5
-1.018, -5.348e-5
-1.019, -5.339e-5
-1.020, -5.327e-5
-1.021, -5.315e-5
-1.022, -5.303e-5
-1.023, -5.288e-5
-1.024, -5.278e-5
-1.025, -5.266e-5
-1.026, -5.254e-5
-1.027, -5.242e-5
-1.028, -5.230e-5
-1.029, -5.218e-5
-1.030, -5.209e-5
-1.031, -5.196e-5
-1.032, -5.184e-5
-1.033, -5.172e-5
-1.034, -5.160e-5
-1.035, -5.151e-5
-1.036, -5.139e-5
-1.037, -5.126e-5
-1.038, -5.114e-5
-1.039, -5.105e-5
-1.040, -5.093e-5
-1.041, -5.081e-5
-1.042, -5.072e-5
-1.043, -5.060e-5
-1.044, -5.050e-5
-1.045, -5.038e-5
-1.046, -5.029e-5
-1.047, -5.017e-5
-1.048, -5.005e-5
-1.049, -4.996e-5
-1.050, -4.987e-5
-1.051, -4.974e-5
-1.052, -4.965e-5
-1.053, -4.953e-5
-1.054, -4.944e-5
-1.055, -4.935e-5
-1.056, -4.926e-5
-1.057, -4.914e-5
-1.058, -4.904e-5
-1.059, -4.892e-5
-1.060, -4.886e-5
-1.061, -4.874e-5
-1.062, -4.865e-5
-1.063, -4.856e-5
-1.064, -4.847e-5
-1.065, -4.837e-5
-1.066, -4.828e-5
-1.067, -4.816e-5
-1.068, -4.807e-5
-1.069, -4.798e-5
-1.070, -4.789e-5
-1.071, -4.780e-5
-1.072, -4.771e-5
-1.073, -4.761e-5
-1.074, -4.752e-5
-1.075, -4.743e-5
-1.076, -4.737e-5
-1.077, -4.728e-5
-1.078, -4.716e-5
-1.079, -4.710e-5
-1.080, -4.701e-5
-1.081, -4.695e-5
-1.082, -4.685e-5
-1.083, -4.676e-5
-1.084, -4.667e-5
-1.085, -4.658e-5
-1.086, -4.649e-5
-1.087, -4.643e-5
-1.088, -4.634e-5
-1.089, -4.625e-5
-1.090, -4.619e-5
-1.091, -4.609e-5
-1.092, -4.600e-5
-1.093, -4.594e-5
-1.094, -4.585e-5
-1.095, -4.576e-5
-1.096, -4.570e-5
-1.097, -4.561e-5
-1.098, -4.552e-5
-1.099, -4.546e-5
-1.100, -4.539e-5
-1.101, -4.530e-5
-1.102, -4.524e-5
-1.103, -4.515e-5
-1.104, -4.509e-5
-1.105, -4.500e-5
-1.106, -4.494e-5
-1.107, -4.488e-5
-1.108, -4.479e-5
-1.109, -4.470e-5
-1.110, -4.463e-5
-1.111, -4.457e-5
-1.112, -4.451e-5
-1.113, -4.442e-5
-1.114, -4.436e-5
-1.115, -4.430e-5
-1.116, -4.424e-5
-1.117, -4.415e-5
-1.118, -4.409e-5
-1.119, -4.400e-5
-1.120, -4.393e-5
-1.121, -4.387e-5
-1.122, -4.381e-5
-1.123, -4.375e-5
-1.124, -4.369e-5
-1.125, -4.363e-5
-1.126, -4.357e-5
-1.127, -4.351e-5
-1.128, -4.342e-5
-1.129, -4.336e-5
-1.130, -4.330e-5
-1.131, -4.324e-5
-1.132, -4.320e-5
-1.133, -4.311e-5
-1.134, -4.305e-5
-1.135, -4.299e-5
-1.136, -4.296e-5
-1.137, -4.290e-5
-1.138, -4.281e-5
-1.139, -4.275e-5
-1.140, -4.272e-5
-1.141, -4.266e-5
-1.142, -4.260e-5
-1.143, -4.254e-5
-1.144, -4.247e-5
-1.145, -4.241e-5
-1.146, -4.235e-5
-1.147, -4.229e-5
-1.148, -4.223e-5
-1.149, -4.217e-5
-1.150, -4.214e-5
-1.151, -4.208e-5
-1.152, -4.202e-5
-1.153, -4.196e-5
-1.154, -4.190e-5
-1.155, -4.184e-5
-1.156, -4.181e-5
-1.157, -4.174e-5
-1.158, -4.168e-5
-1.159, -4.162e-5
-1.160, -4.159e-5
-1.161, -4.153e-5
-1.162, -4.147e-5
-1.163, -4.144e-5
-1.164, -4.138e-5
-1.165, -4.132e-5
-1.166, -4.129e-5
-1.167, -4.123e-5
-1.168, -4.117e-5
-1.169, -4.111e-5
-1.170, -4.108e-5
-1.171, -4.102e-5
-1.172, -4.098e-5
-1.173, -4.092e-5
-1.174, -4.086e-5
-1.175, -4.083e-5
-1.176, -4.080e-5
-1.177, -4.074e-5
-1.178, -4.068e-5
-1.179, -4.065e-5
-1.180, -4.059e-5
-1.181, -4.056e-5
-1.182, -4.053e-5
-1.183, -4.047e-5
-1.184, -4.041e-5
-1.185, -4.038e-5
-1.186, -4.035e-5
-1.187, -4.032e-5
-1.188, -4.025e-5
-1.189, -4.019e-5
-1.190, -4.016e-5
-1.191, -4.013e-5
-1.192, -4.010e-5
-1.193, -4.004e-5
-1.194, -4.001e-5
-1.195, -3.998e-5
-1.196, -3.992e-5
-1.197, -3.989e-5
-1.198, -3.983e-5
-1.199, -3.980e-5
